# [<k> (h/Mpc)]	[<P_0(k)> (Mpc/h)^3]	[ErrorBar (Mpc/h)^3]	nModes	[<P_2(k)> (Mpc/h)^3]
3.476422e-02	1.499967e+04	4.160161e+03	13.000000	0.000000e+00
5.890282e-02	1.098024e+04	1.911415e+03	33.000000	0.000000e+00
8.378087e-02	6.475551e+03	7.285564e+02	79.000000	0.000000e+00
1.087368e-01	4.976344e+03	4.600632e+02	117.000000	0.000000e+00
1.341836e-01	3.721229e+03	2.599019e+02	205.000000	0.000000e+00
1.581206e-01	2.746698e+03	1.791748e+02	235.000000	0.000000e+00
1.826843e-01	2.127100e+03	1.107324e+02	369.000000	0.000000e+00
2.073525e-01	1.961862e+03	9.428107e+01	433.000000	0.000000e+00
2.322407e-01	1.713254e+03	7.083433e+01	585.000000	0.000000e+00
2.568838e-01	1.444236e+03	5.542467e+01	679.000000	0.000000e+00
2.811185e-01	1.310204e+03	4.595085e+01	813.000000	0.000000e+00
3.057758e-01	1.160230e+03	3.696801e+01	985.000000	0.000000e+00
3.308750e-01	1.120294e+03	3.257164e+01	1183.000000	0.000000e+00
3.553459e-01	1.038576e+03	2.915462e+01	1269.000000	0.000000e+00
3.797184e-01	8.891011e+02	2.267849e+01	1537.000000	0.000000e+00
4.042043e-01	8.664434e+02	2.131100e+01	1653.000000	0.000000e+00
4.287408e-01	7.821901e+02	1.765437e+01	1963.000000	0.000000e+00
4.533372e-01	7.659793e+02	1.663209e+01	2121.000000	0.000000e+00
4.779960e-01	7.192008e+02	1.464103e+01	2413.000000	0.000000e+00
5.026630e-01	6.825879e+02	1.329745e+01	2635.000000	0.000000e+00
5.271488e-01	6.174629e+02	1.151174e+01	2877.000000	0.000000e+00
5.515428e-01	6.012372e+02	1.068033e+01	3169.000000	0.000000e+00
5.762241e-01	5.662721e+02	9.562188e+00	3507.000000	0.000000e+00
6.007286e-01	5.701001e+02	9.391444e+00	3685.000000	0.000000e+00
6.252569e-01	5.415670e+02	8.391598e+00	4165.000000	0.000000e+00
6.499966e-01	5.263094e+02	7.955232e+00	4377.000000	0.000000e+00
6.746858e-01	4.930869e+02	7.076669e+00	4855.000000	0.000000e+00
6.991271e-01	4.861330e+02	6.924298e+00	4929.000000	0.000000e+00
7.235757e-01	4.681706e+02	6.266833e+00	5581.000000	0.000000e+00
7.479714e-01	4.516271e+02	5.992997e+00	5679.000000	0.000000e+00
7.726133e-01	4.406428e+02	5.514501e+00	6385.000000	0.000000e+00
7.972413e-01	4.223133e+02	5.216927e+00	6553.000000	0.000000e+00
8.218513e-01	4.146058e+02	4.911825e+00	7125.000000	0.000000e+00
8.464491e-01	3.977553e+02	4.609198e+00	7447.000000	0.000000e+00
8.709767e-01	3.907290e+02	4.387998e+00	7929.000000	0.000000e+00
8.955547e-01	3.760023e+02	4.114047e+00	8353.000000	0.000000e+00
9.199772e-01	3.677676e+02	3.925996e+00	8775.000000	0.000000e+00
9.444963e-01	3.662721e+02	3.795413e+00	9313.000000	0.000000e+00
9.690846e-01	3.571783e+02	3.600522e+00	9841.000000	0.000000e+00
9.935517e-01	3.493087e+02	3.460199e+00	10191.000000	0.000000e+00
1.018099e+00	3.412929e+02	3.269443e+00	10897.000000	0.000000e+00
1.042679e+00	3.324412e+02	3.127206e+00	11301.000000	0.000000e+00
1.067353e+00	3.234741e+02	2.949830e+00	12025.000000	0.000000e+00
1.092004e+00	3.146901e+02	2.823383e+00	12423.000000	0.000000e+00
1.116549e+00	3.083189e+02	2.701954e+00	13021.000000	0.000000e+00
1.140967e+00	3.044558e+02	2.629607e+00	13405.000000	0.000000e+00
1.165410e+00	2.942396e+02	2.465127e+00	14247.000000	0.000000e+00
1.189942e+00	2.844654e+02	2.349991e+00	14653.000000	0.000000e+00
1.214340e+00	2.838049e+02	2.291956e+00	15333.000000	0.000000e+00
1.238824e+00	2.774731e+02	2.197122e+00	15949.000000	0.000000e+00
1.263616e+00	2.685908e+02	2.056432e+00	17059.000000	0.000000e+00
1.288278e+00	2.645187e+02	2.023003e+00	17097.000000	0.000000e+00
1.312698e+00	2.579575e+02	1.924574e+00	17965.000000	0.000000e+00
1.337129e+00	2.522668e+02	1.853151e+00	18531.000000	0.000000e+00
1.361846e+00	2.499328e+02	1.782100e+00	19669.000000	0.000000e+00
1.386459e+00	2.438670e+02	1.729032e+00	19893.000000	0.000000e+00
1.410760e+00	2.380129e+02	1.662963e+00	20485.000000	0.000000e+00
1.435294e+00	2.379004e+02	1.613079e+00	21751.000000	0.000000e+00
1.459966e+00	2.305522e+02	1.547051e+00	22209.000000	0.000000e+00
1.484553e+00	2.268531e+02	1.494494e+00	23041.000000	0.000000e+00
1.509059e+00	2.242585e+02	1.456992e+00	23691.000000	0.000000e+00
1.533565e+00	2.177343e+02	1.392276e+00	24457.000000	0.000000e+00
1.558284e+00	2.173194e+02	1.353050e+00	25797.000000	0.000000e+00
1.582818e+00	2.127054e+02	1.328708e+00	25627.000000	0.000000e+00
1.607259e+00	2.084167e+02	1.263317e+00	27217.000000	0.000000e+00
1.631809e+00	2.041966e+02	1.230256e+00	27549.000000	0.000000e+00
1.656366e+00	2.001305e+02	1.179014e+00	28813.000000	0.000000e+00
1.680925e+00	1.980190e+02	1.155755e+00	29355.000000	0.000000e+00
1.705257e+00	1.931490e+02	1.116692e+00	29917.000000	0.000000e+00
1.729806e+00	1.905139e+02	1.070827e+00	31653.000000	0.000000e+00
1.754462e+00	1.870964e+02	1.046702e+00	31951.000000	0.000000e+00
1.778992e+00	1.820838e+02	1.001413e+00	33061.000000	0.000000e+00
1.803411e+00	1.793391e+02	9.784185e-01	33597.000000	0.000000e+00
1.827963e+00	1.783047e+02	9.504076e-01	35197.000000	0.000000e+00
1.852647e+00	1.732707e+02	9.154699e-01	35823.000000	0.000000e+00
1.877249e+00	1.716326e+02	8.928910e-01	36949.000000	0.000000e+00
1.901733e+00	1.676161e+02	8.677787e-01	37309.000000	0.000000e+00
1.926241e+00	1.644872e+02	8.321135e-01	39075.000000	0.000000e+00
1.950830e+00	1.623807e+02	8.183424e-01	39373.000000	0.000000e+00
1.975308e+00	1.610030e+02	7.967615e-01	40833.000000	0.000000e+00
1.999729e+00	1.583983e+02	7.803442e-01	41203.000000	0.000000e+00
2.024419e+00	1.543294e+02	7.383507e-01	43689.000000	0.000000e+00
2.049126e+00	1.517722e+02	7.275835e-01	43513.000000	0.000000e+00
2.073508e+00	1.506789e+02	7.147926e-01	44437.000000	0.000000e+00
2.097846e+00	1.483234e+02	6.941996e-01	45651.000000	0.000000e+00
2.122473e+00	1.451614e+02	6.661514e-01	47485.000000	0.000000e+00
2.147106e+00	1.431207e+02	6.535190e-01	47961.000000	0.000000e+00
2.171601e+00	1.410574e+02	6.362788e-01	49147.000000	0.000000e+00
2.196158e+00	1.383886e+02	6.168912e-01	50325.000000	0.000000e+00
2.220735e+00	1.366608e+02	6.013303e-01	51649.000000	0.000000e+00
2.245251e+00	1.349042e+02	5.907255e-01	52153.000000	0.000000e+00
2.269729e+00	1.330556e+02	5.728827e-01	53943.000000	0.000000e+00
2.294271e+00	1.311750e+02	5.608792e-01	54697.000000	0.000000e+00
2.318928e+00	1.284716e+02	5.393161e-01	56745.000000	0.000000e+00
2.343538e+00	1.265917e+02	5.302015e-01	57007.000000	0.000000e+00
2.368026e+00	1.250088e+02	5.170203e-01	58461.000000	0.000000e+00
2.392423e+00	1.216111e+02	5.004911e-01	59041.000000	0.000000e+00
2.416863e+00	1.199555e+02	4.856257e-01	61015.000000	0.000000e+00
2.441509e+00	1.192174e+02	4.763477e-01	62637.000000	0.000000e+00
2.466080e+00	1.170378e+02	4.656655e-01	63169.000000	0.000000e+00
2.490575e+00	1.152852e+02	4.535660e-01	64605.000000	0.000000e+00
2.515186e+00	1.138422e+02	4.415045e-01	66487.000000	0.000000e+00
2.539777e+00	1.127166e+02	4.353550e-01	67033.000000	0.000000e+00
2.564215e+00	1.111722e+02	4.255723e-01	68241.000000	0.000000e+00
2.588707e+00	1.095456e+02	4.140700e-01	69991.000000	0.000000e+00
2.613337e+00	1.075419e+02	4.021699e-01	71505.000000	0.000000e+00
2.637925e+00	1.069985e+02	3.968107e-01	72709.000000	0.000000e+00
2.662420e+00	1.043038e+02	3.848012e-01	73473.000000	0.000000e+00
2.686963e+00	1.028214e+02	3.735554e-01	75763.000000	0.000000e+00
2.711515e+00	1.022978e+02	3.704375e-01	76261.000000	0.000000e+00
2.735982e+00	1.003311e+02	3.592774e-01	77985.000000	0.000000e+00
2.760573e+00	9.901527e+01	3.500478e-01	80011.000000	0.000000e+00
2.785237e+00	9.723932e+01	3.416452e-01	81009.000000	0.000000e+00
2.809671e+00	9.668378e+01	3.384589e-01	81601.000000	0.000000e+00
2.834151e+00	9.484269e+01	3.270807e-01	84081.000000	0.000000e+00
2.858722e+00	9.354489e+01	3.205567e-01	85159.000000	0.000000e+00
2.883250e+00	9.290609e+01	3.155893e-01	86665.000000	0.000000e+00
2.907819e+00	9.109264e+01	3.064800e-01	88341.000000	0.000000e+00
2.932335e+00	9.013226e+01	3.013143e-01	89479.000000	0.000000e+00
2.956914e+00	8.865547e+01	2.930523e-01	91521.000000	0.000000e+00
2.981449e+00	8.736095e+01	2.873575e-01	92425.000000	0.000000e+00
3.005876e+00	8.655352e+01	2.829408e-01	93579.000000	0.000000e+00
3.030403e+00	8.548025e+01	2.754548e-01	96301.000000	0.000000e+00
3.055041e+00	8.415163e+01	2.692842e-01	97657.000000	0.000000e+00
3.079692e+00	8.312815e+01	2.636758e-01	99393.000000	0.000000e+00
3.104241e+00	8.204609e+01	2.591999e-01	100195.000000	0.000000e+00
3.128710e+00	8.134628e+01	2.550692e-01	101709.000000	0.000000e+00
3.153123e+00	8.030931e+01	2.502091e-01	103021.000000	0.000000e+00
3.177619e+00	7.914518e+01	2.435444e-01	105607.000000	0.000000e+00
3.202185e+00	7.853837e+01	2.403134e-01	106809.000000	0.000000e+00
3.226708e+00	7.716003e+01	2.341270e-01	108613.000000	0.000000e+00
3.251321e+00	7.617679e+01	2.288706e-01	110781.000000	0.000000e+00
3.275882e+00	7.512986e+01	2.248520e-01	111643.000000	0.000000e+00
3.300393e+00	7.447947e+01	2.209179e-01	113661.000000	0.000000e+00
3.324955e+00	7.342658e+01	2.162779e-01	115261.000000	0.000000e+00
3.349528e+00	7.280753e+01	2.124240e-01	117475.000000	0.000000e+00
3.374087e+00	7.194953e+01	2.091088e-01	118389.000000	0.000000e+00
3.398541e+00	7.091332e+01	2.046980e-01	120013.000000	0.000000e+00
3.423011e+00	7.015287e+01	2.009303e-01	121899.000000	0.000000e+00
3.447546e+00	6.904157e+01	1.959724e-01	124117.000000	0.000000e+00
3.472176e+00	6.844396e+01	1.923091e-01	126669.000000	0.000000e+00
3.496772e+00	6.763941e+01	1.898299e-01	126961.000000	0.000000e+00
3.521302e+00	6.693719e+01	1.857254e-01	129895.000000	0.000000e+00
3.545845e+00	6.582838e+01	1.822522e-01	130461.000000	0.000000e+00
3.570351e+00	6.553302e+01	1.794779e-01	133321.000000	0.000000e+00
3.594817e+00	6.442809e+01	1.762522e-01	133623.000000	0.000000e+00
3.619340e+00	6.416717e+01	1.731008e-01	137413.000000	0.000000e+00
3.643921e+00	6.321573e+01	1.700226e-01	138241.000000	0.000000e+00
3.668501e+00	6.234378e+01	1.660518e-01	140961.000000	0.000000e+00
3.693083e+00	6.159797e+01	1.633175e-01	142255.000000	0.000000e+00
3.717636e+00	6.060056e+01	1.596051e-01	144165.000000	0.000000e+00
3.742123e+00	6.028236e+01	1.581082e-01	145369.000000	0.000000e+00
3.766623e+00	5.965832e+01	1.549744e-01	148191.000000	0.000000e+00
3.791211e+00	5.904073e+01	1.523445e-01	150193.000000	0.000000e+00
3.815740e+00	5.820741e+01	1.495564e-01	151477.000000	0.000000e+00
3.840250e+00	5.756573e+01	1.468060e-01	153759.000000	0.000000e+00
3.864816e+00	5.729079e+01	1.449954e-01	156121.000000	0.000000e+00
3.889416e+00	5.671637e+01	1.425822e-01	158229.000000	0.000000e+00
3.913984e+00	5.592110e+01	1.399721e-01	159613.000000	0.000000e+00
3.938439e+00	5.503694e+01	1.372279e-01	160851.000000	0.000000e+00
3.962856e+00	5.463595e+01	1.353482e-01	162949.000000	0.000000e+00
3.987408e+00	5.392790e+01	1.320189e-01	166861.000000	0.000000e+00
4.011951e+00	5.347273e+01	1.308709e-01	166947.000000	0.000000e+00
4.036502e+00	5.295221e+01	1.281235e-01	170809.000000	0.000000e+00
4.061101e+00	5.251288e+01	1.266047e-01	172041.000000	0.000000e+00
4.085632e+00	5.194732e+01	1.246026e-01	173809.000000	0.000000e+00
4.110226e+00	5.152199e+01	1.223338e-01	177375.000000	0.000000e+00
4.134760e+00	5.085884e+01	1.208949e-01	176977.000000	0.000000e+00
4.159247e+00	5.041909e+01	1.185662e-01	180829.000000	0.000000e+00
4.183807e+00	4.970789e+01	1.163309e-01	182583.000000	0.000000e+00
4.208321e+00	4.919451e+01	1.146526e-01	184105.000000	0.000000e+00
4.232839e+00	4.876321e+01	1.126760e-01	187293.000000	0.000000e+00
4.257376e+00	4.846413e+01	1.116765e-01	188329.000000	0.000000e+00
4.281944e+00	4.764783e+01	1.086133e-01	192451.000000	0.000000e+00
4.306505e+00	4.731614e+01	1.078197e-01	192585.000000	0.000000e+00
4.331033e+00	4.667584e+01	1.053985e-01	196117.000000	0.000000e+00
4.355617e+00	4.623338e+01	1.038475e-01	198207.000000	0.000000e+00
4.380161e+00	4.590892e+01	1.027591e-01	199597.000000	0.000000e+00
4.404676e+00	4.564713e+01	1.014238e-01	202557.000000	0.000000e+00
4.429249e+00	4.501929e+01	9.946811e-02	204847.000000	0.000000e+00
4.453772e+00	4.477697e+01	9.857391e-02	206341.000000	0.000000e+00
4.478282e+00	4.411984e+01	9.645738e-02	209217.000000	0.000000e+00
4.502777e+00	4.384868e+01	9.557083e-02	210505.000000	0.000000e+00
4.527289e+00	4.350208e+01	9.397232e-02	214299.000000	0.000000e+00
4.551889e+00	4.278581e+01	9.194024e-02	216565.000000	0.000000e+00
4.576426e+00	4.254680e+01	9.116267e-02	217821.000000	0.000000e+00
4.600893e+00	4.205688e+01	8.963807e-02	220135.000000	0.000000e+00
4.625467e+00	4.159979e+01	8.783582e-02	224305.000000	0.000000e+00
4.650035e+00	4.150809e+01	8.752366e-02	224913.000000	0.000000e+00
4.674541e+00	4.097213e+01	8.585621e-02	227737.000000	0.000000e+00
4.699104e+00	4.035620e+01	8.399615e-02	230835.000000	0.000000e+00
4.723670e+00	4.014660e+01	8.321061e-02	232777.000000	0.000000e+00
4.748182e+00	3.984333e+01	8.229897e-02	234381.000000	0.000000e+00
4.772682e+00	3.946221e+01	8.094834e-02	237655.000000	0.000000e+00
4.797203e+00	3.911531e+01	7.995765e-02	239317.000000	0.000000e+00
4.821755e+00	3.874348e+01	7.850840e-02	243537.000000	0.000000e+00
4.846361e+00	3.848100e+01	7.770737e-02	245227.000000	0.000000e+00
4.870915e+00	3.799299e+01	7.640445e-02	247269.000000	0.000000e+00
4.895426e+00	3.774792e+01	7.555252e-02	249625.000000	0.000000e+00
4.919952e+00	3.755511e+01	7.476161e-02	252337.000000	0.000000e+00
4.944496e+00	3.707514e+01	7.337096e-02	255339.000000	0.000000e+00
4.969013e+00	3.668642e+01	7.244214e-02	256465.000000	0.000000e+00
4.993562e+00	3.645688e+01	7.132344e-02	261273.000000	0.000000e+00
5.018138e+00	3.609719e+01	7.048578e-02	262267.000000	0.000000e+00
5.042642e+00	3.576971e+01	6.952709e-02	264681.000000	0.000000e+00
5.067215e+00	3.533761e+01	6.812229e-02	269089.000000	0.000000e+00
5.091775e+00	3.523614e+01	6.789338e-02	269353.000000	0.000000e+00
5.116309e+00	3.495760e+01	6.677880e-02	274035.000000	0.000000e+00
5.140838e+00	3.459029e+01	6.604846e-02	274273.000000	0.000000e+00
5.165333e+00	3.436159e+01	6.510996e-02	278517.000000	0.000000e+00
5.189818e+00	3.410752e+01	6.452181e-02	279439.000000	0.000000e+00
5.214351e+00	3.373216e+01	6.321309e-02	284757.000000	0.000000e+00
5.238947e+00	3.356064e+01	6.271045e-02	286405.000000	0.000000e+00
5.263479e+00	3.317753e+01	6.176661e-02	288523.000000	0.000000e+00
5.288002e+00	3.292119e+01	6.095920e-02	291657.000000	0.000000e+00
5.312546e+00	3.254259e+01	5.997954e-02	294373.000000	0.000000e+00
5.337121e+00	3.242219e+01	5.941030e-02	297825.000000	0.000000e+00
5.361672e+00	3.215990e+01	5.877733e-02	299371.000000	0.000000e+00
5.386196e+00	3.187744e+01	5.794816e-02	302613.000000	0.000000e+00
5.410715e+00	3.164507e+01	5.733471e-02	304633.000000	0.000000e+00
5.435244e+00	3.134187e+01	5.642588e-02	308527.000000	0.000000e+00
5.459823e+00	3.103129e+01	5.561189e-02	311361.000000	0.000000e+00
5.484389e+00	3.085681e+01	5.505749e-02	314101.000000	0.000000e+00
5.508889e+00	3.061748e+01	5.457349e-02	314757.000000	0.000000e+00
5.533464e+00	3.036855e+01	5.350632e-02	322135.000000	0.000000e+00
5.558036e+00	3.012664e+01	5.324648e-02	320125.000000	0.000000e+00
5.582484e+00	2.982435e+01	5.234301e-02	324657.000000	0.000000e+00
5.606956e+00	2.954390e+01	5.170972e-02	326431.000000	0.000000e+00
5.631560e+00	2.938976e+01	5.088352e-02	333609.000000	0.000000e+00
5.656168e+00	2.910437e+01	5.043540e-02	333001.000000	0.000000e+00
5.680698e+00	2.887861e+01	4.976815e-02	336705.000000	0.000000e+00
5.705204e+00	2.868792e+01	4.931242e-02	338443.000000	0.000000e+00
5.729704e+00	2.857618e+01	4.885131e-02	342181.000000	0.000000e+00
5.754232e+00	2.818462e+01	4.797404e-02	345153.000000	0.000000e+00
5.778772e+00	2.794416e+01	4.732771e-02	348619.000000	0.000000e+00
5.803342e+00	2.773185e+01	4.677998e-02	351429.000000	0.000000e+00
5.827902e+00	2.749415e+01	4.616408e-02	354709.000000	0.000000e+00
5.852409e+00	2.737327e+01	4.588964e-02	355815.000000	0.000000e+00
5.876957e+00	2.718165e+01	4.519510e-02	361717.000000	0.000000e+00
5.901534e+00	2.698689e+01	4.480147e-02	362845.000000	0.000000e+00
5.926030e+00	2.676650e+01	4.429324e-02	365181.000000	0.000000e+00
5.950548e+00	2.667296e+01	4.385914e-02	369847.000000	0.000000e+00
5.975137e+00	2.633661e+01	4.311335e-02	373161.000000	0.000000e+00
5.999657e+00	2.610784e+01	4.269745e-02	373885.000000	0.000000e+00
6.024161e+00	2.603056e+01	4.228355e-02	378987.000000	0.000000e+00
6.048714e+00	2.580857e+01	4.179686e-02	381277.000000	0.000000e+00
6.073267e+00	2.564948e+01	4.131229e-02	385477.000000	0.000000e+00
6.097868e+00	2.542134e+01	4.076714e-02	388845.000000	0.000000e+00
6.122369e+00	2.522919e+01	4.047096e-02	388615.000000	0.000000e+00
6.146867e+00	2.501772e+01	3.980178e-02	395085.000000	0.000000e+00
6.171452e+00	2.492377e+01	3.953759e-02	397381.000000	0.000000e+00
6.195974e+00	2.468243e+01	3.903264e-02	399871.000000	0.000000e+00
6.220444e+00	2.449613e+01	3.865970e-02	401493.000000	0.000000e+00
6.244986e+00	2.439888e+01	3.815414e-02	408937.000000	0.000000e+00
6.269588e+00	2.408444e+01	3.762317e-02	409791.000000	0.000000e+00
6.294124e+00	2.393204e+01	3.723880e-02	413017.000000	0.000000e+00
6.318633e+00	2.379342e+01	3.690073e-02	415761.000000	0.000000e+00
6.343202e+00	2.361398e+01	3.639970e-02	420865.000000	0.000000e+00
6.367770e+00	2.345857e+01	3.607871e-02	422767.000000	0.000000e+00
6.392288e+00	2.331745e+01	3.574963e-02	425421.000000	0.000000e+00
6.416837e+00	2.314543e+01	3.527492e-02	430525.000000	0.000000e+00
6.441383e+00	2.297609e+01	3.496757e-02	431739.000000	0.000000e+00
6.465913e+00	2.281927e+01	3.453800e-02	436525.000000	0.000000e+00
6.490433e+00	2.272600e+01	3.432488e-02	438357.000000	0.000000e+00
6.514946e+00	2.246349e+01	3.377372e-02	442381.000000	0.000000e+00
6.539518e+00	2.235899e+01	3.342159e-02	447559.000000	0.000000e+00
6.564059e+00	2.215890e+01	3.311576e-02	447741.000000	0.000000e+00
6.588587e+00	2.206455e+01	3.275198e-02	453853.000000	0.000000e+00
6.613110e+00	2.185790e+01	3.242459e-02	454431.000000	0.000000e+00
6.637622e+00	2.172848e+01	3.203825e-02	459961.000000	0.000000e+00
6.662172e+00	2.153912e+01	3.166254e-02	462769.000000	0.000000e+00
6.686693e+00	2.140983e+01	3.137131e-02	465759.000000	0.000000e+00
6.711227e+00	2.125457e+01	3.100440e-02	469957.000000	0.000000e+00
6.735777e+00	2.109088e+01	3.065092e-02	473481.000000	0.000000e+00
6.760323e+00	2.099889e+01	3.042854e-02	476245.000000	0.000000e+00
6.784855e+00	2.081863e+01	3.003962e-02	480303.000000	0.000000e+00
6.809427e+00	2.072897e+01	2.977818e-02	484573.000000	0.000000e+00
6.833979e+00	2.062808e+01	2.957471e-02	486493.000000	0.000000e+00
6.858503e+00	2.047770e+01	2.923563e-02	490611.000000	0.000000e+00
6.883055e+00	2.033949e+01	2.893067e-02	494269.000000	0.000000e+00
6.907584e+00	2.018287e+01	2.862094e-02	497277.000000	0.000000e+00
6.932134e+00	2.009130e+01	2.836563e-02	501685.000000	0.000000e+00
6.956669e+00	1.987764e+01	2.799571e-02	504135.000000	0.000000e+00
6.981221e+00	1.975999e+01	2.769263e-02	509149.000000	0.000000e+00
7.005753e+00	1.963361e+01	2.747572e-02	510625.000000	0.000000e+00
7.030233e+00	1.947723e+01	2.715555e-02	514443.000000	0.000000e+00
7.054782e+00	1.942970e+01	2.694329e-02	520033.000000	0.000000e+00
7.079343e+00	1.929256e+01	2.668251e-02	522789.000000	0.000000e+00
7.103883e+00	1.912381e+01	2.636803e-02	526009.000000	0.000000e+00
7.128424e+00	1.902831e+01	2.612569e-02	530475.000000	0.000000e+00
7.152965e+00	1.891627e+01	2.591044e-02	532993.000000	0.000000e+00
7.177501e+00	1.874846e+01	2.557200e-02	537529.000000	0.000000e+00
7.202013e+00	1.864119e+01	2.537471e-02	539691.000000	0.000000e+00
7.226577e+00	1.852720e+01	2.505880e-02	546637.000000	0.000000e+00
7.251125e+00	1.844106e+01	2.493500e-02	546957.000000	0.000000e+00
7.275651e+00	1.835265e+01	2.468720e-02	552655.000000	0.000000e+00
7.300226e+00	1.818537e+01	2.437356e-02	556681.000000	0.000000e+00
7.324759e+00	1.810494e+01	2.422618e-02	558501.000000	0.000000e+00
7.349299e+00	1.793963e+01	2.388360e-02	564193.000000	0.000000e+00
7.373825e+00	1.785131e+01	2.373746e-02	565551.000000	0.000000e+00
7.398312e+00	1.771945e+01	2.347342e-02	569833.000000	0.000000e+00
7.422892e+00	1.768185e+01	2.326985e-02	577389.000000	0.000000e+00
7.447442e+00	1.746352e+01	2.300360e-02	576331.000000	0.000000e+00
7.471956e+00	1.741531e+01	2.281138e-02	582853.000000	0.000000e+00
