# [<k> (h/Mpc)]	[<P_0(k)> (Mpc/h)^3]	[ErrorBar (Mpc/h)^3]	nModes	[<P_2(k)> (Mpc/h)^3]
3.476422e-02	1.500491e+04	4.161614e+03	13.000000	0.000000e+00
5.890282e-02	1.097637e+04	1.910741e+03	33.000000	0.000000e+00
8.378087e-02	6.477606e+03	7.287876e+02	79.000000	0.000000e+00
1.087368e-01	4.976474e+03	4.600752e+02	117.000000	0.000000e+00
1.341836e-01	3.721113e+03	2.598938e+02	205.000000	0.000000e+00
1.581206e-01	2.746811e+03	1.791822e+02	235.000000	0.000000e+00
1.826843e-01	2.127073e+03	1.107310e+02	369.000000	0.000000e+00
2.073525e-01	1.961880e+03	9.428193e+01	433.000000	0.000000e+00
2.322407e-01	1.713395e+03	7.084017e+01	585.000000	0.000000e+00
2.568838e-01	1.444147e+03	5.542129e+01	679.000000	0.000000e+00
2.811185e-01	1.310361e+03	4.595638e+01	813.000000	0.000000e+00
3.057758e-01	1.160190e+03	3.696672e+01	985.000000	0.000000e+00
3.308750e-01	1.120553e+03	3.257916e+01	1183.000000	0.000000e+00
3.553459e-01	1.038849e+03	2.916229e+01	1269.000000	0.000000e+00
3.797184e-01	8.893364e+02	2.268450e+01	1537.000000	0.000000e+00
4.042043e-01	8.666830e+02	2.131689e+01	1653.000000	0.000000e+00
4.287408e-01	7.821710e+02	1.765394e+01	1963.000000	0.000000e+00
4.533372e-01	7.660498e+02	1.663362e+01	2121.000000	0.000000e+00
4.779960e-01	7.193632e+02	1.464433e+01	2413.000000	0.000000e+00
5.026630e-01	6.826153e+02	1.329798e+01	2635.000000	0.000000e+00
5.271488e-01	6.175617e+02	1.151358e+01	2877.000000	0.000000e+00
5.515428e-01	6.013017e+02	1.068148e+01	3169.000000	0.000000e+00
5.762241e-01	5.663984e+02	9.564322e+00	3507.000000	0.000000e+00
6.007286e-01	5.701920e+02	9.392959e+00	3685.000000	0.000000e+00
6.252569e-01	5.416554e+02	8.392968e+00	4165.000000	0.000000e+00
6.499966e-01	5.263952e+02	7.956530e+00	4377.000000	0.000000e+00
6.746858e-01	4.930490e+02	7.076125e+00	4855.000000	0.000000e+00
6.991271e-01	4.862015e+02	6.925273e+00	4929.000000	0.000000e+00
7.235757e-01	4.682807e+02	6.268307e+00	5581.000000	0.000000e+00
7.479714e-01	4.517837e+02	5.995075e+00	5679.000000	0.000000e+00
7.726133e-01	4.407023e+02	5.515246e+00	6385.000000	0.000000e+00
7.972413e-01	4.225539e+02	5.219899e+00	6553.000000	0.000000e+00
8.218513e-01	4.146964e+02	4.912899e+00	7125.000000	0.000000e+00
8.464491e-01	3.978764e+02	4.610601e+00	7447.000000	0.000000e+00
8.709767e-01	3.908159e+02	4.388974e+00	7929.000000	0.000000e+00
8.955547e-01	3.760409e+02	4.114469e+00	8353.000000	0.000000e+00
9.199772e-01	3.678915e+02	3.927319e+00	8775.000000	0.000000e+00
9.444963e-01	3.664243e+02	3.796990e+00	9313.000000	0.000000e+00
9.690846e-01	3.572985e+02	3.601733e+00	9841.000000	0.000000e+00
9.935517e-01	3.494967e+02	3.462061e+00	10191.000000	0.000000e+00
1.018099e+00	3.414227e+02	3.270686e+00	10897.000000	0.000000e+00
1.042679e+00	3.326186e+02	3.128874e+00	11301.000000	0.000000e+00
1.067353e+00	3.236167e+02	2.951130e+00	12025.000000	0.000000e+00
1.092004e+00	3.147552e+02	2.823968e+00	12423.000000	0.000000e+00
1.116549e+00	3.084843e+02	2.703404e+00	13021.000000	0.000000e+00
1.140967e+00	3.046742e+02	2.631493e+00	13405.000000	0.000000e+00
1.165410e+00	2.944292e+02	2.466716e+00	14247.000000	0.000000e+00
1.189942e+00	2.846443e+02	2.351469e+00	14653.000000	0.000000e+00
1.214340e+00	2.839526e+02	2.293149e+00	15333.000000	0.000000e+00
1.238824e+00	2.776042e+02	2.198160e+00	15949.000000	0.000000e+00
1.263616e+00	2.687634e+02	2.057754e+00	17059.000000	0.000000e+00
1.288278e+00	2.646954e+02	2.024354e+00	17097.000000	0.000000e+00
1.312698e+00	2.581215e+02	1.925797e+00	17965.000000	0.000000e+00
1.337129e+00	2.524258e+02	1.854319e+00	18531.000000	0.000000e+00
1.361846e+00	2.501222e+02	1.783451e+00	19669.000000	0.000000e+00
1.386459e+00	2.440168e+02	1.730094e+00	19893.000000	0.000000e+00
1.410760e+00	2.381397e+02	1.663849e+00	20485.000000	0.000000e+00
1.435294e+00	2.380226e+02	1.613907e+00	21751.000000	0.000000e+00
1.459966e+00	2.307140e+02	1.548137e+00	22209.000000	0.000000e+00
1.484553e+00	2.270017e+02	1.495472e+00	23041.000000	0.000000e+00
1.509059e+00	2.243962e+02	1.457887e+00	23691.000000	0.000000e+00
1.533565e+00	2.178943e+02	1.393299e+00	24457.000000	0.000000e+00
1.558284e+00	2.174809e+02	1.354056e+00	25797.000000	0.000000e+00
1.582818e+00	2.128552e+02	1.329644e+00	25627.000000	0.000000e+00
1.607259e+00	2.085387e+02	1.264056e+00	27217.000000	0.000000e+00
1.631809e+00	2.043731e+02	1.231320e+00	27549.000000	0.000000e+00
1.656366e+00	2.003028e+02	1.180029e+00	28813.000000	0.000000e+00
1.680925e+00	1.981724e+02	1.156650e+00	29355.000000	0.000000e+00
1.705257e+00	1.932990e+02	1.117559e+00	29917.000000	0.000000e+00
1.729806e+00	1.906543e+02	1.071616e+00	31653.000000	0.000000e+00
1.754462e+00	1.872738e+02	1.047695e+00	31951.000000	0.000000e+00
1.778992e+00	1.822690e+02	1.002432e+00	33061.000000	0.000000e+00
1.803411e+00	1.794941e+02	9.792641e-01	33597.000000	0.000000e+00
1.827963e+00	1.785079e+02	9.514909e-01	35197.000000	0.000000e+00
1.852647e+00	1.734832e+02	9.165928e-01	35823.000000	0.000000e+00
1.877249e+00	1.717580e+02	8.935434e-01	36949.000000	0.000000e+00
1.901733e+00	1.678163e+02	8.688153e-01	37309.000000	0.000000e+00
1.926241e+00	1.647083e+02	8.332320e-01	39075.000000	0.000000e+00
1.950830e+00	1.625683e+02	8.192879e-01	39373.000000	0.000000e+00
1.975308e+00	1.612804e+02	7.981343e-01	40833.000000	0.000000e+00
1.999729e+00	1.585349e+02	7.810172e-01	41203.000000	0.000000e+00
2.024419e+00	1.545621e+02	7.394641e-01	43689.000000	0.000000e+00
2.049126e+00	1.519635e+02	7.285002e-01	43513.000000	0.000000e+00
2.073508e+00	1.508914e+02	7.158006e-01	44437.000000	0.000000e+00
2.097846e+00	1.485312e+02	6.951723e-01	45651.000000	0.000000e+00
2.122473e+00	1.453599e+02	6.670623e-01	47485.000000	0.000000e+00
2.147106e+00	1.433412e+02	6.545261e-01	47961.000000	0.000000e+00
2.171601e+00	1.412471e+02	6.371344e-01	49147.000000	0.000000e+00
2.196158e+00	1.385956e+02	6.178139e-01	50325.000000	0.000000e+00
2.220735e+00	1.368765e+02	6.022792e-01	51649.000000	0.000000e+00
2.245251e+00	1.351351e+02	5.917367e-01	52153.000000	0.000000e+00
2.269729e+00	1.332716e+02	5.738125e-01	53943.000000	0.000000e+00
2.294271e+00	1.314368e+02	5.619987e-01	54697.000000	0.000000e+00
2.318928e+00	1.287278e+02	5.403917e-01	56745.000000	0.000000e+00
2.343538e+00	1.268388e+02	5.312367e-01	57007.000000	0.000000e+00
2.368026e+00	1.252829e+02	5.181539e-01	58461.000000	0.000000e+00
2.392423e+00	1.218398e+02	5.014323e-01	59041.000000	0.000000e+00
2.416863e+00	1.202084e+02	4.866498e-01	61015.000000	0.000000e+00
2.441509e+00	1.194397e+02	4.772358e-01	62637.000000	0.000000e+00
2.466080e+00	1.172825e+02	4.666393e-01	63169.000000	0.000000e+00
2.490575e+00	1.155578e+02	4.546383e-01	64605.000000	0.000000e+00
2.515186e+00	1.140776e+02	4.424172e-01	66487.000000	0.000000e+00
2.539777e+00	1.129871e+02	4.363999e-01	67033.000000	0.000000e+00
2.564215e+00	1.114417e+02	4.266041e-01	68241.000000	0.000000e+00
2.588707e+00	1.098073e+02	4.150594e-01	69991.000000	0.000000e+00
2.613337e+00	1.077981e+02	4.031278e-01	71505.000000	0.000000e+00
2.637925e+00	1.072737e+02	3.978314e-01	72709.000000	0.000000e+00
2.662420e+00	1.045751e+02	3.858019e-01	73473.000000	0.000000e+00
2.686963e+00	1.031050e+02	3.745857e-01	75763.000000	0.000000e+00
2.711515e+00	1.025510e+02	3.713545e-01	76261.000000	0.000000e+00
2.735982e+00	1.006016e+02	3.602461e-01	77985.000000	0.000000e+00
2.760573e+00	9.927438e+01	3.509638e-01	80011.000000	0.000000e+00
2.785237e+00	9.747954e+01	3.424892e-01	81009.000000	0.000000e+00
2.809671e+00	9.694208e+01	3.393631e-01	81601.000000	0.000000e+00
2.834151e+00	9.512503e+01	3.280544e-01	84081.000000	0.000000e+00
2.858722e+00	9.379292e+01	3.214066e-01	85159.000000	0.000000e+00
2.883250e+00	9.319163e+01	3.165593e-01	86665.000000	0.000000e+00
2.907819e+00	9.136700e+01	3.074031e-01	88341.000000	0.000000e+00
2.932335e+00	9.040734e+01	3.022339e-01	89479.000000	0.000000e+00
2.956914e+00	8.892322e+01	2.939374e-01	91521.000000	0.000000e+00
2.981449e+00	8.764638e+01	2.882964e-01	92425.000000	0.000000e+00
3.005876e+00	8.684905e+01	2.839069e-01	93579.000000	0.000000e+00
3.030403e+00	8.576086e+01	2.763591e-01	96301.000000	0.000000e+00
3.055041e+00	8.442548e+01	2.701605e-01	97657.000000	0.000000e+00
3.079692e+00	8.341748e+01	2.645935e-01	99393.000000	0.000000e+00
3.104241e+00	8.230893e+01	2.600303e-01	100195.000000	0.000000e+00
3.128710e+00	8.161135e+01	2.559004e-01	101709.000000	0.000000e+00
3.153123e+00	8.058609e+01	2.510714e-01	103021.000000	0.000000e+00
3.177619e+00	7.943520e+01	2.444368e-01	105607.000000	0.000000e+00
3.202185e+00	7.882156e+01	2.411799e-01	106809.000000	0.000000e+00
3.226708e+00	7.744954e+01	2.350055e-01	108613.000000	0.000000e+00
3.251321e+00	7.646618e+01	2.297401e-01	110781.000000	0.000000e+00
3.275882e+00	7.541802e+01	2.257145e-01	111643.000000	0.000000e+00
3.300393e+00	7.476079e+01	2.217523e-01	113661.000000	0.000000e+00
3.324955e+00	7.372651e+01	2.171613e-01	115261.000000	0.000000e+00
3.349528e+00	7.310515e+01	2.132923e-01	117475.000000	0.000000e+00
3.374087e+00	7.224534e+01	2.099685e-01	118389.000000	0.000000e+00
3.398541e+00	7.122176e+01	2.055884e-01	120013.000000	0.000000e+00
3.423011e+00	7.047277e+01	2.018465e-01	121899.000000	0.000000e+00
3.447546e+00	6.933642e+01	1.968094e-01	124117.000000	0.000000e+00
3.472176e+00	6.874013e+01	1.931413e-01	126669.000000	0.000000e+00
3.496772e+00	6.795718e+01	1.907217e-01	126961.000000	0.000000e+00
3.521302e+00	6.723205e+01	1.865435e-01	129895.000000	0.000000e+00
3.545845e+00	6.613971e+01	1.831142e-01	130461.000000	0.000000e+00
3.570351e+00	6.581667e+01	1.802547e-01	133321.000000	0.000000e+00
3.594817e+00	6.473865e+01	1.771018e-01	133623.000000	0.000000e+00
3.619340e+00	6.447251e+01	1.739245e-01	137413.000000	0.000000e+00
3.643921e+00	6.352254e+01	1.708478e-01	138241.000000	0.000000e+00
3.668501e+00	6.264557e+01	1.668556e-01	140961.000000	0.000000e+00
3.693083e+00	6.190954e+01	1.641436e-01	142255.000000	0.000000e+00
3.717636e+00	6.089644e+01	1.603844e-01	144165.000000	0.000000e+00
3.742123e+00	6.060753e+01	1.589610e-01	145369.000000	0.000000e+00
3.766623e+00	5.995666e+01	1.557494e-01	148191.000000	0.000000e+00
3.791211e+00	5.936494e+01	1.531811e-01	150193.000000	0.000000e+00
3.815740e+00	5.852489e+01	1.503721e-01	151477.000000	0.000000e+00
3.840250e+00	5.786631e+01	1.475725e-01	153759.000000	0.000000e+00
3.864816e+00	5.759184e+01	1.457573e-01	156121.000000	0.000000e+00
3.889416e+00	5.702523e+01	1.433587e-01	158229.000000	0.000000e+00
3.913984e+00	5.624399e+01	1.407803e-01	159613.000000	0.000000e+00
3.938439e+00	5.533500e+01	1.379711e-01	160851.000000	0.000000e+00
3.962856e+00	5.495567e+01	1.361403e-01	162949.000000	0.000000e+00
3.987408e+00	5.425985e+01	1.328315e-01	166861.000000	0.000000e+00
4.011951e+00	5.380033e+01	1.316727e-01	166947.000000	0.000000e+00
4.036502e+00	5.327574e+01	1.289063e-01	170809.000000	0.000000e+00
4.061101e+00	5.283680e+01	1.273856e-01	172041.000000	0.000000e+00
4.085632e+00	5.227379e+01	1.253857e-01	173809.000000	0.000000e+00
4.110226e+00	5.186122e+01	1.231393e-01	177375.000000	0.000000e+00
4.134760e+00	5.117224e+01	1.216399e-01	176977.000000	0.000000e+00
4.159247e+00	5.075611e+01	1.193588e-01	180829.000000	0.000000e+00
4.183807e+00	5.002394e+01	1.170706e-01	182583.000000	0.000000e+00
4.208321e+00	4.951191e+01	1.153923e-01	184105.000000	0.000000e+00
4.232839e+00	4.910750e+01	1.134716e-01	187293.000000	0.000000e+00
4.257376e+00	4.878709e+01	1.124207e-01	188329.000000	0.000000e+00
4.281944e+00	4.796589e+01	1.093383e-01	192451.000000	0.000000e+00
4.306505e+00	4.765591e+01	1.085939e-01	192585.000000	0.000000e+00
4.331033e+00	4.700702e+01	1.061463e-01	196117.000000	0.000000e+00
4.355617e+00	4.654636e+01	1.045505e-01	198207.000000	0.000000e+00
4.380161e+00	4.624807e+01	1.035182e-01	199597.000000	0.000000e+00
4.404676e+00	4.598774e+01	1.021806e-01	202557.000000	0.000000e+00
4.429249e+00	4.535899e+01	1.002187e-01	204847.000000	0.000000e+00
4.453772e+00	4.512523e+01	9.934057e-02	206341.000000	0.000000e+00
4.478282e+00	4.444919e+01	9.717743e-02	209217.000000	0.000000e+00
4.502777e+00	4.418855e+01	9.631158e-02	210505.000000	0.000000e+00
4.527289e+00	4.385419e+01	9.473294e-02	214299.000000	0.000000e+00
4.551889e+00	4.311892e+01	9.265604e-02	216565.000000	0.000000e+00
4.576426e+00	4.289486e+01	9.190844e-02	217821.000000	0.000000e+00
4.600893e+00	4.239573e+01	9.036027e-02	220135.000000	0.000000e+00
4.625467e+00	4.193540e+01	8.854444e-02	224305.000000	0.000000e+00
4.650035e+00	4.185554e+01	8.825630e-02	224913.000000	0.000000e+00
4.674541e+00	4.132739e+01	8.660065e-02	227737.000000	0.000000e+00
4.699104e+00	4.069990e+01	8.471152e-02	230835.000000	0.000000e+00
4.723670e+00	4.049876e+01	8.394053e-02	232777.000000	0.000000e+00
4.748182e+00	4.019385e+01	8.302300e-02	234381.000000	0.000000e+00
4.772682e+00	3.979182e+01	8.162447e-02	237655.000000	0.000000e+00
4.797203e+00	3.946290e+01	8.066818e-02	239317.000000	0.000000e+00
4.821755e+00	3.909471e+01	7.922012e-02	243537.000000	0.000000e+00
4.846361e+00	3.883269e+01	7.841755e-02	245227.000000	0.000000e+00
4.870915e+00	3.832864e+01	7.707945e-02	247269.000000	0.000000e+00
4.895426e+00	3.809606e+01	7.624933e-02	249625.000000	0.000000e+00
4.919952e+00	3.790820e+01	7.546449e-02	252337.000000	0.000000e+00
4.944496e+00	3.743408e+01	7.408130e-02	255339.000000	0.000000e+00
4.969013e+00	3.703837e+01	7.313712e-02	256465.000000	0.000000e+00
4.993562e+00	3.681200e+01	7.201817e-02	261273.000000	0.000000e+00
5.018138e+00	3.644651e+01	7.116789e-02	262267.000000	0.000000e+00
5.042642e+00	3.611860e+01	7.020523e-02	264681.000000	0.000000e+00
5.067215e+00	3.568471e+01	6.879140e-02	269089.000000	0.000000e+00
5.091775e+00	3.559865e+01	6.859187e-02	269353.000000	0.000000e+00
5.116309e+00	3.532395e+01	6.747862e-02	274035.000000	0.000000e+00
5.140838e+00	3.495917e+01	6.675281e-02	274273.000000	0.000000e+00
5.165333e+00	3.471867e+01	6.578657e-02	278517.000000	0.000000e+00
5.189818e+00	3.447045e+01	6.520839e-02	279439.000000	0.000000e+00
5.214351e+00	3.408924e+01	6.388224e-02	284757.000000	0.000000e+00
5.238947e+00	3.391713e+01	6.337658e-02	286405.000000	0.000000e+00
5.263479e+00	3.354117e+01	6.244361e-02	288523.000000	0.000000e+00
5.288002e+00	3.328184e+01	6.162701e-02	291657.000000	0.000000e+00
5.312546e+00	3.290651e+01	6.065029e-02	294373.000000	0.000000e+00
5.337121e+00	3.278716e+01	6.007908e-02	297825.000000	0.000000e+00
5.361672e+00	3.252666e+01	5.944763e-02	299371.000000	0.000000e+00
5.386196e+00	3.223485e+01	5.859787e-02	302613.000000	0.000000e+00
5.410715e+00	3.201911e+01	5.801239e-02	304633.000000	0.000000e+00
5.435244e+00	3.171282e+01	5.709372e-02	308527.000000	0.000000e+00
5.459823e+00	3.140583e+01	5.628312e-02	311361.000000	0.000000e+00
5.484389e+00	3.123223e+01	5.572734e-02	314101.000000	0.000000e+00
5.508889e+00	3.098864e+01	5.523505e-02	314757.000000	0.000000e+00
5.533464e+00	3.073312e+01	5.414865e-02	322135.000000	0.000000e+00
5.558036e+00	3.049936e+01	5.390523e-02	320125.000000	0.000000e+00
5.582484e+00	3.020675e+01	5.301414e-02	324657.000000	0.000000e+00
5.606956e+00	2.991131e+01	5.235279e-02	326431.000000	0.000000e+00
5.631560e+00	2.976171e+01	5.152750e-02	333609.000000	0.000000e+00
5.656168e+00	2.947329e+01	5.107470e-02	333001.000000	0.000000e+00
5.680698e+00	2.924721e+01	5.040338e-02	336705.000000	0.000000e+00
5.705204e+00	2.907143e+01	4.997164e-02	338443.000000	0.000000e+00
5.729704e+00	2.895753e+01	4.950323e-02	342181.000000	0.000000e+00
5.754232e+00	2.856915e+01	4.862857e-02	345153.000000	0.000000e+00
5.778772e+00	2.831999e+01	4.796424e-02	348619.000000	0.000000e+00
5.803342e+00	2.812421e+01	4.744184e-02	351429.000000	0.000000e+00
5.827902e+00	2.788047e+01	4.681273e-02	354709.000000	0.000000e+00
5.852409e+00	2.777009e+01	4.655487e-02	355815.000000	0.000000e+00
5.876957e+00	2.756245e+01	4.582825e-02	361717.000000	0.000000e+00
5.901534e+00	2.736615e+01	4.543109e-02	362845.000000	0.000000e+00
5.926030e+00	2.716580e+01	4.495400e-02	365181.000000	0.000000e+00
5.950548e+00	2.706188e+01	4.449865e-02	369847.000000	0.000000e+00
5.975137e+00	2.672492e+01	4.374902e-02	373161.000000	0.000000e+00
5.999657e+00	2.649637e+01	4.333285e-02	373885.000000	0.000000e+00
6.024161e+00	2.642842e+01	4.292982e-02	378987.000000	0.000000e+00
6.048714e+00	2.620455e+01	4.243815e-02	381277.000000	0.000000e+00
6.073267e+00	2.604165e+01	4.194394e-02	385477.000000	0.000000e+00
6.097868e+00	2.581293e+01	4.139511e-02	388845.000000	0.000000e+00
6.122369e+00	2.562366e+01	4.110375e-02	388615.000000	0.000000e+00
6.146867e+00	2.540866e+01	4.042375e-02	395085.000000	0.000000e+00
6.171452e+00	2.531408e+01	4.015676e-02	397381.000000	0.000000e+00
6.195974e+00	2.507548e+01	3.965420e-02	399871.000000	0.000000e+00
6.220444e+00	2.488448e+01	3.927260e-02	401493.000000	0.000000e+00
6.244986e+00	2.480266e+01	3.878556e-02	408937.000000	0.000000e+00
6.269588e+00	2.447700e+01	3.823640e-02	409791.000000	0.000000e+00
6.294124e+00	2.432878e+01	3.785614e-02	413017.000000	0.000000e+00
6.318633e+00	2.419842e+01	3.752884e-02	415761.000000	0.000000e+00
6.343202e+00	2.400808e+01	3.700718e-02	420865.000000	0.000000e+00
6.367770e+00	2.385515e+01	3.668865e-02	422767.000000	0.000000e+00
6.392288e+00	2.371579e+01	3.636036e-02	425421.000000	0.000000e+00
6.416837e+00	2.354566e+01	3.588490e-02	430525.000000	0.000000e+00
6.441383e+00	2.337786e+01	3.557904e-02	431739.000000	0.000000e+00
6.465913e+00	2.322703e+01	3.515517e-02	436525.000000	0.000000e+00
6.490433e+00	2.313299e+01	3.493959e-02	438357.000000	0.000000e+00
6.514946e+00	2.286717e+01	3.438066e-02	442381.000000	0.000000e+00
6.539518e+00	2.276447e+01	3.402769e-02	447559.000000	0.000000e+00
6.564059e+00	2.256477e+01	3.372232e-02	447741.000000	0.000000e+00
6.588587e+00	2.245971e+01	3.333853e-02	453853.000000	0.000000e+00
6.613110e+00	2.226123e+01	3.302290e-02	454431.000000	0.000000e+00
6.637622e+00	2.213112e+01	3.263194e-02	459961.000000	0.000000e+00
6.662172e+00	2.195219e+01	3.226976e-02	462769.000000	0.000000e+00
6.686693e+00	2.180973e+01	3.195727e-02	465759.000000	0.000000e+00
6.711227e+00	2.166230e+01	3.159915e-02	469957.000000	0.000000e+00
6.735777e+00	2.150030e+01	3.124592e-02	473481.000000	0.000000e+00
6.760323e+00	2.140829e+01	3.102178e-02	476245.000000	0.000000e+00
6.784855e+00	2.123603e+01	3.064191e-02	480303.000000	0.000000e+00
6.809427e+00	2.113881e+01	3.036693e-02	484573.000000	0.000000e+00
6.833979e+00	2.103796e+01	3.016236e-02	486493.000000	0.000000e+00
6.858503e+00	2.089593e+01	2.983274e-02	490611.000000	0.000000e+00
6.883055e+00	2.075417e+01	2.952051e-02	494269.000000	0.000000e+00
6.907584e+00	2.059172e+01	2.920071e-02	497277.000000	0.000000e+00
6.932134e+00	2.050572e+01	2.895072e-02	501685.000000	0.000000e+00
6.956669e+00	2.028974e+01	2.857610e-02	504135.000000	0.000000e+00
6.981221e+00	2.017730e+01	2.827747e-02	509149.000000	0.000000e+00
7.005753e+00	2.004238e+01	2.804776e-02	510625.000000	0.000000e+00
7.030233e+00	1.989778e+01	2.774189e-02	514443.000000	0.000000e+00
7.054782e+00	1.984826e+01	2.752371e-02	520033.000000	0.000000e+00
7.079343e+00	1.970524e+01	2.725326e-02	522789.000000	0.000000e+00
7.103883e+00	1.953584e+01	2.693615e-02	526009.000000	0.000000e+00
7.128424e+00	1.944825e+01	2.670227e-02	530475.000000	0.000000e+00
7.152965e+00	1.933225e+01	2.648023e-02	532993.000000	0.000000e+00
7.177501e+00	1.916038e+01	2.613384e-02	537529.000000	0.000000e+00
7.202013e+00	1.905840e+01	2.594262e-02	539691.000000	0.000000e+00
7.226577e+00	1.894677e+01	2.562628e-02	546637.000000	0.000000e+00
7.251125e+00	1.885965e+01	2.550098e-02	546957.000000	0.000000e+00
7.275651e+00	1.877516e+01	2.525553e-02	552655.000000	0.000000e+00
7.300226e+00	1.860665e+01	2.493819e-02	556681.000000	0.000000e+00
7.324759e+00	1.852960e+01	2.479442e-02	558501.000000	0.000000e+00
7.349299e+00	1.836767e+01	2.445346e-02	564193.000000	0.000000e+00
7.373825e+00	1.827750e+01	2.430417e-02	565551.000000	0.000000e+00
7.398312e+00	1.814758e+01	2.404057e-02	569833.000000	0.000000e+00
7.422892e+00	1.811717e+01	2.384274e-02	577389.000000	0.000000e+00
7.447442e+00	1.789662e+01	2.357409e-02	576331.000000	0.000000e+00
7.471956e+00	1.784521e+01	2.337449e-02	582853.000000	0.000000e+00
