# [<k> (h/Mpc)]	[<P_0(k)> (Mpc/h)^3]	[ErrorBar (Mpc/h)^3]	nModes	[<P_2(k)> (Mpc/h)^3]
3.476422e-02	1.500026e+04	4.160323e+03	13.000000	0.000000e+00
5.890282e-02	1.097970e+04	1.911320e+03	33.000000	0.000000e+00
8.378087e-02	6.475764e+03	7.285803e+02	79.000000	0.000000e+00
1.087368e-01	4.976293e+03	4.600584e+02	117.000000	0.000000e+00
1.341836e-01	3.721201e+03	2.599000e+02	205.000000	0.000000e+00
1.581206e-01	2.746649e+03	1.791716e+02	235.000000	0.000000e+00
1.826843e-01	2.127049e+03	1.107298e+02	369.000000	0.000000e+00
2.073525e-01	1.961795e+03	9.427784e+01	433.000000	0.000000e+00
2.322407e-01	1.713208e+03	7.083245e+01	585.000000	0.000000e+00
2.568838e-01	1.444148e+03	5.542130e+01	679.000000	0.000000e+00
2.811185e-01	1.310272e+03	4.595326e+01	813.000000	0.000000e+00
3.057758e-01	1.160333e+03	3.697129e+01	985.000000	0.000000e+00
3.308750e-01	1.120326e+03	3.257258e+01	1183.000000	0.000000e+00
3.553459e-01	1.038659e+03	2.915697e+01	1269.000000	0.000000e+00
3.797184e-01	8.891806e+02	2.268052e+01	1537.000000	0.000000e+00
4.042043e-01	8.664938e+02	2.131224e+01	1653.000000	0.000000e+00
4.287408e-01	7.822151e+02	1.765493e+01	1963.000000	0.000000e+00
4.533372e-01	7.659637e+02	1.663175e+01	2121.000000	0.000000e+00
4.779960e-01	7.192264e+02	1.464155e+01	2413.000000	0.000000e+00
5.026630e-01	6.825653e+02	1.329701e+01	2635.000000	0.000000e+00
5.271488e-01	6.174421e+02	1.151135e+01	2877.000000	0.000000e+00
5.515428e-01	6.012613e+02	1.068076e+01	3169.000000	0.000000e+00
5.762241e-01	5.662944e+02	9.562564e+00	3507.000000	0.000000e+00
6.007286e-01	5.701404e+02	9.392108e+00	3685.000000	0.000000e+00
6.252569e-01	5.416117e+02	8.392290e+00	4165.000000	0.000000e+00
6.499966e-01	5.262838e+02	7.954845e+00	4377.000000	0.000000e+00
6.746858e-01	4.930520e+02	7.076167e+00	4855.000000	0.000000e+00
6.991271e-01	4.861391e+02	6.924384e+00	4929.000000	0.000000e+00
7.235757e-01	4.681527e+02	6.266593e+00	5581.000000	0.000000e+00
7.479714e-01	4.516330e+02	5.993076e+00	5679.000000	0.000000e+00
7.726133e-01	4.406397e+02	5.514462e+00	6385.000000	0.000000e+00
7.972413e-01	4.223620e+02	5.217527e+00	6553.000000	0.000000e+00
8.218513e-01	4.146483e+02	4.912329e+00	7125.000000	0.000000e+00
8.464491e-01	3.977278e+02	4.608878e+00	7447.000000	0.000000e+00
8.709767e-01	3.907210e+02	4.387909e+00	7929.000000	0.000000e+00
8.955547e-01	3.759990e+02	4.114011e+00	8353.000000	0.000000e+00
9.199772e-01	3.677875e+02	3.926209e+00	8775.000000	0.000000e+00
9.444963e-01	3.662847e+02	3.795543e+00	9313.000000	0.000000e+00
9.690846e-01	3.571913e+02	3.600653e+00	9841.000000	0.000000e+00
9.935517e-01	3.493087e+02	3.460198e+00	10191.000000	0.000000e+00
1.018099e+00	3.413123e+02	3.269629e+00	10897.000000	0.000000e+00
1.042679e+00	3.324607e+02	3.127389e+00	11301.000000	0.000000e+00
1.067353e+00	3.234505e+02	2.949614e+00	12025.000000	0.000000e+00
1.092004e+00	3.146666e+02	2.823172e+00	12423.000000	0.000000e+00
1.116549e+00	3.083261e+02	2.702018e+00	13021.000000	0.000000e+00
1.140967e+00	3.045102e+02	2.630076e+00	13405.000000	0.000000e+00
1.165410e+00	2.942612e+02	2.465309e+00	14247.000000	0.000000e+00
1.189942e+00	2.844782e+02	2.350096e+00	14653.000000	0.000000e+00
1.214340e+00	2.837759e+02	2.291722e+00	15333.000000	0.000000e+00
1.238824e+00	2.774526e+02	2.196959e+00	15949.000000	0.000000e+00
1.263616e+00	2.685789e+02	2.056341e+00	17059.000000	0.000000e+00
1.288278e+00	2.644942e+02	2.022815e+00	17097.000000	0.000000e+00
1.312698e+00	2.579623e+02	1.924610e+00	17965.000000	0.000000e+00
1.337129e+00	2.522380e+02	1.852939e+00	18531.000000	0.000000e+00
1.361846e+00	2.499389e+02	1.782144e+00	19669.000000	0.000000e+00
1.386459e+00	2.438371e+02	1.728820e+00	19893.000000	0.000000e+00
1.410760e+00	2.379974e+02	1.662855e+00	20485.000000	0.000000e+00
1.435294e+00	2.378750e+02	1.612907e+00	21751.000000	0.000000e+00
1.459966e+00	2.305217e+02	1.546847e+00	22209.000000	0.000000e+00
1.484553e+00	2.268220e+02	1.494288e+00	23041.000000	0.000000e+00
1.509059e+00	2.242289e+02	1.456800e+00	23691.000000	0.000000e+00
1.533565e+00	2.177120e+02	1.392133e+00	24457.000000	0.000000e+00
1.558284e+00	2.172676e+02	1.352727e+00	25797.000000	0.000000e+00
1.582818e+00	2.126566e+02	1.328404e+00	25627.000000	0.000000e+00
1.607259e+00	2.083899e+02	1.263155e+00	27217.000000	0.000000e+00
1.631809e+00	2.041640e+02	1.230060e+00	27549.000000	0.000000e+00
1.656366e+00	2.001027e+02	1.178851e+00	28813.000000	0.000000e+00
1.680925e+00	1.979944e+02	1.155612e+00	29355.000000	0.000000e+00
1.705257e+00	1.931020e+02	1.116421e+00	29917.000000	0.000000e+00
1.729806e+00	1.904947e+02	1.070719e+00	31653.000000	0.000000e+00
1.754462e+00	1.870626e+02	1.046513e+00	31951.000000	0.000000e+00
1.778992e+00	1.820654e+02	1.001312e+00	33061.000000	0.000000e+00
1.803411e+00	1.793074e+02	9.782455e-01	33597.000000	0.000000e+00
1.827963e+00	1.782809e+02	9.502810e-01	35197.000000	0.000000e+00
1.852647e+00	1.732434e+02	9.153257e-01	35823.000000	0.000000e+00
1.877249e+00	1.715734e+02	8.925828e-01	36949.000000	0.000000e+00
1.901733e+00	1.675666e+02	8.675224e-01	37309.000000	0.000000e+00
1.926241e+00	1.644609e+02	8.319806e-01	39075.000000	0.000000e+00
1.950830e+00	1.623641e+02	8.182587e-01	39373.000000	0.000000e+00
1.975308e+00	1.610203e+02	7.968470e-01	40833.000000	0.000000e+00
1.999729e+00	1.583644e+02	7.801769e-01	41203.000000	0.000000e+00
2.024419e+00	1.543045e+02	7.382314e-01	43689.000000	0.000000e+00
2.049126e+00	1.517429e+02	7.274430e-01	43513.000000	0.000000e+00
2.073508e+00	1.506595e+02	7.147006e-01	44437.000000	0.000000e+00
2.097846e+00	1.482968e+02	6.940753e-01	45651.000000	0.000000e+00
2.122473e+00	1.451262e+02	6.659898e-01	47485.000000	0.000000e+00
2.147106e+00	1.430789e+02	6.533282e-01	47961.000000	0.000000e+00
2.171601e+00	1.410169e+02	6.360961e-01	49147.000000	0.000000e+00
2.196158e+00	1.383382e+02	6.166661e-01	50325.000000	0.000000e+00
2.220735e+00	1.366030e+02	6.010760e-01	51649.000000	0.000000e+00
2.245251e+00	1.348730e+02	5.905891e-01	52153.000000	0.000000e+00
2.269729e+00	1.330096e+02	5.726843e-01	53943.000000	0.000000e+00
2.294271e+00	1.311571e+02	5.608025e-01	54697.000000	0.000000e+00
2.318928e+00	1.284443e+02	5.392013e-01	56745.000000	0.000000e+00
2.343538e+00	1.265683e+02	5.301038e-01	57007.000000	0.000000e+00
2.368026e+00	1.249880e+02	5.169340e-01	58461.000000	0.000000e+00
2.392423e+00	1.215846e+02	5.003822e-01	59041.000000	0.000000e+00
2.416863e+00	1.199276e+02	4.855130e-01	61015.000000	0.000000e+00
2.441509e+00	1.191819e+02	4.762059e-01	62637.000000	0.000000e+00
2.466080e+00	1.170004e+02	4.655166e-01	63169.000000	0.000000e+00
2.490575e+00	1.152503e+02	4.534287e-01	64605.000000	0.000000e+00
2.515186e+00	1.138163e+02	4.414037e-01	66487.000000	0.000000e+00
2.539777e+00	1.126850e+02	4.352331e-01	67033.000000	0.000000e+00
2.564215e+00	1.111523e+02	4.254963e-01	68241.000000	0.000000e+00
2.588707e+00	1.095123e+02	4.139443e-01	69991.000000	0.000000e+00
2.613337e+00	1.075008e+02	4.020160e-01	71505.000000	0.000000e+00
2.637925e+00	1.069740e+02	3.967202e-01	72709.000000	0.000000e+00
2.662420e+00	1.042796e+02	3.847118e-01	73473.000000	0.000000e+00
2.686963e+00	1.027948e+02	3.734588e-01	75763.000000	0.000000e+00
2.711515e+00	1.022707e+02	3.703394e-01	76261.000000	0.000000e+00
2.735982e+00	1.002960e+02	3.591519e-01	77985.000000	0.000000e+00
2.760573e+00	9.897530e+01	3.499065e-01	80011.000000	0.000000e+00
2.785237e+00	9.721155e+01	3.415476e-01	81009.000000	0.000000e+00
2.809671e+00	9.664620e+01	3.383273e-01	81601.000000	0.000000e+00
2.834151e+00	9.480673e+01	3.269567e-01	84081.000000	0.000000e+00
2.858722e+00	9.351823e+01	3.204653e-01	85159.000000	0.000000e+00
2.883250e+00	9.288170e+01	3.155065e-01	86665.000000	0.000000e+00
2.907819e+00	9.106563e+01	3.063891e-01	88341.000000	0.000000e+00
2.932335e+00	9.010967e+01	3.012387e-01	89479.000000	0.000000e+00
2.956914e+00	8.862284e+01	2.929444e-01	91521.000000	0.000000e+00
2.981449e+00	8.733738e+01	2.872800e-01	92425.000000	0.000000e+00
3.005876e+00	8.653898e+01	2.828933e-01	93579.000000	0.000000e+00
3.030403e+00	8.545295e+01	2.753669e-01	96301.000000	0.000000e+00
3.055041e+00	8.411025e+01	2.691518e-01	97657.000000	0.000000e+00
3.079692e+00	8.309988e+01	2.635861e-01	99393.000000	0.000000e+00
3.104241e+00	8.201856e+01	2.591130e-01	100195.000000	0.000000e+00
3.128710e+00	8.131279e+01	2.549642e-01	101709.000000	0.000000e+00
3.153123e+00	8.027963e+01	2.501166e-01	103021.000000	0.000000e+00
3.177619e+00	7.911890e+01	2.434635e-01	105607.000000	0.000000e+00
3.202185e+00	7.851121e+01	2.402303e-01	106809.000000	0.000000e+00
3.226708e+00	7.713057e+01	2.340376e-01	108613.000000	0.000000e+00
3.251321e+00	7.615371e+01	2.288013e-01	110781.000000	0.000000e+00
3.275882e+00	7.510100e+01	2.247657e-01	111643.000000	0.000000e+00
3.300393e+00	7.444346e+01	2.208111e-01	113661.000000	0.000000e+00
3.324955e+00	7.340213e+01	2.162059e-01	115261.000000	0.000000e+00
3.349528e+00	7.278309e+01	2.123527e-01	117475.000000	0.000000e+00
3.374087e+00	7.192476e+01	2.090368e-01	118389.000000	0.000000e+00
3.398541e+00	7.089118e+01	2.046341e-01	120013.000000	0.000000e+00
3.423011e+00	7.013382e+01	2.008757e-01	121899.000000	0.000000e+00
3.447546e+00	6.901317e+01	1.958918e-01	124117.000000	0.000000e+00
3.472176e+00	6.841478e+01	1.922272e-01	126669.000000	0.000000e+00
3.496772e+00	6.762528e+01	1.897902e-01	126961.000000	0.000000e+00
3.521302e+00	6.690977e+01	1.856493e-01	129895.000000	0.000000e+00
3.545845e+00	6.580460e+01	1.821864e-01	130461.000000	0.000000e+00
3.570351e+00	6.549466e+01	1.793728e-01	133321.000000	0.000000e+00
3.594817e+00	6.440057e+01	1.761770e-01	133623.000000	0.000000e+00
3.619340e+00	6.412946e+01	1.729990e-01	137413.000000	0.000000e+00
3.643921e+00	6.318340e+01	1.699357e-01	138241.000000	0.000000e+00
3.668501e+00	6.231324e+01	1.659705e-01	140961.000000	0.000000e+00
3.693083e+00	6.156695e+01	1.632352e-01	142255.000000	0.000000e+00
3.717636e+00	6.056721e+01	1.595172e-01	144165.000000	0.000000e+00
3.742123e+00	6.026590e+01	1.580650e-01	145369.000000	0.000000e+00
3.766623e+00	5.962861e+01	1.548973e-01	148191.000000	0.000000e+00
3.791211e+00	5.901638e+01	1.522817e-01	150193.000000	0.000000e+00
3.815740e+00	5.817775e+01	1.494802e-01	151477.000000	0.000000e+00
3.840250e+00	5.753580e+01	1.467297e-01	153759.000000	0.000000e+00
3.864816e+00	5.726470e+01	1.449294e-01	156121.000000	0.000000e+00
3.889416e+00	5.668757e+01	1.425098e-01	158229.000000	0.000000e+00
3.913984e+00	5.589129e+01	1.398975e-01	159613.000000	0.000000e+00
3.938439e+00	5.500035e+01	1.371367e-01	160851.000000	0.000000e+00
3.962856e+00	5.460963e+01	1.352831e-01	162949.000000	0.000000e+00
3.987408e+00	5.390365e+01	1.319595e-01	166861.000000	0.000000e+00
4.011951e+00	5.344615e+01	1.308058e-01	166947.000000	0.000000e+00
4.036502e+00	5.292013e+01	1.280459e-01	170809.000000	0.000000e+00
4.061101e+00	5.248926e+01	1.265478e-01	172041.000000	0.000000e+00
4.085632e+00	5.191693e+01	1.245297e-01	173809.000000	0.000000e+00
4.110226e+00	5.150264e+01	1.222878e-01	177375.000000	0.000000e+00
4.134760e+00	5.083675e+01	1.208424e-01	176977.000000	0.000000e+00
4.159247e+00	5.039553e+01	1.185108e-01	180829.000000	0.000000e+00
4.183807e+00	4.967829e+01	1.162617e-01	182583.000000	0.000000e+00
4.208321e+00	4.917356e+01	1.146038e-01	184105.000000	0.000000e+00
4.232839e+00	4.874776e+01	1.126403e-01	187293.000000	0.000000e+00
4.257376e+00	4.843567e+01	1.116109e-01	188329.000000	0.000000e+00
4.281944e+00	4.762400e+01	1.085590e-01	192451.000000	0.000000e+00
4.306505e+00	4.729118e+01	1.077628e-01	192585.000000	0.000000e+00
4.331033e+00	4.664996e+01	1.053401e-01	196117.000000	0.000000e+00
4.355617e+00	4.620275e+01	1.037787e-01	198207.000000	0.000000e+00
4.380161e+00	4.588542e+01	1.027064e-01	199597.000000	0.000000e+00
4.404676e+00	4.562391e+01	1.013722e-01	202557.000000	0.000000e+00
4.429249e+00	4.499622e+01	9.941712e-02	204847.000000	0.000000e+00
4.453772e+00	4.475781e+01	9.853171e-02	206341.000000	0.000000e+00
4.478282e+00	4.409464e+01	9.640227e-02	209217.000000	0.000000e+00
4.502777e+00	4.382911e+01	9.552817e-02	210505.000000	0.000000e+00
4.527289e+00	4.348071e+01	9.392616e-02	214299.000000	0.000000e+00
4.551889e+00	4.276099e+01	9.188690e-02	216565.000000	0.000000e+00
4.576426e+00	4.252300e+01	9.111168e-02	217821.000000	0.000000e+00
4.600893e+00	4.203131e+01	8.958357e-02	220135.000000	0.000000e+00
4.625467e+00	4.157539e+01	8.778431e-02	224305.000000	0.000000e+00
4.650035e+00	4.148817e+01	8.748165e-02	224913.000000	0.000000e+00
4.674541e+00	4.094988e+01	8.580960e-02	227737.000000	0.000000e+00
4.699104e+00	4.033565e+01	8.395340e-02	230835.000000	0.000000e+00
4.723670e+00	4.013190e+01	8.318015e-02	232777.000000	0.000000e+00
4.748182e+00	3.981805e+01	8.224675e-02	234381.000000	0.000000e+00
4.772682e+00	3.943668e+01	8.089596e-02	237655.000000	0.000000e+00
4.797203e+00	3.909187e+01	7.990973e-02	239317.000000	0.000000e+00
4.821755e+00	3.872303e+01	7.846696e-02	243537.000000	0.000000e+00
4.846361e+00	3.846162e+01	7.766824e-02	245227.000000	0.000000e+00
4.870915e+00	3.796907e+01	7.635634e-02	247269.000000	0.000000e+00
4.895426e+00	3.772670e+01	7.551006e-02	249625.000000	0.000000e+00
4.919952e+00	3.753395e+01	7.471948e-02	252337.000000	0.000000e+00
4.944496e+00	3.705656e+01	7.333419e-02	255339.000000	0.000000e+00
4.969013e+00	3.666716e+01	7.240410e-02	256465.000000	0.000000e+00
4.993562e+00	3.643300e+01	7.127671e-02	261273.000000	0.000000e+00
5.018138e+00	3.607664e+01	7.044566e-02	262267.000000	0.000000e+00
5.042642e+00	3.575009e+01	6.948896e-02	264681.000000	0.000000e+00
5.067215e+00	3.531481e+01	6.807833e-02	269089.000000	0.000000e+00
5.091775e+00	3.522153e+01	6.786523e-02	269353.000000	0.000000e+00
5.116309e+00	3.494120e+01	6.674747e-02	274035.000000	0.000000e+00
5.140838e+00	3.457673e+01	6.602256e-02	274273.000000	0.000000e+00
5.165333e+00	3.434169e+01	6.507225e-02	278517.000000	0.000000e+00
5.189818e+00	3.408998e+01	6.448865e-02	279439.000000	0.000000e+00
5.214351e+00	3.371573e+01	6.318229e-02	284757.000000	0.000000e+00
5.238947e+00	3.353726e+01	6.266677e-02	286405.000000	0.000000e+00
5.263479e+00	3.316019e+01	6.173434e-02	288523.000000	0.000000e+00
5.288002e+00	3.289789e+01	6.091606e-02	291657.000000	0.000000e+00
5.312546e+00	3.252660e+01	5.995006e-02	294373.000000	0.000000e+00
5.337121e+00	3.240334e+01	5.937576e-02	297825.000000	0.000000e+00
5.361672e+00	3.214155e+01	5.874378e-02	299371.000000	0.000000e+00
5.386196e+00	3.185581e+01	5.790885e-02	302613.000000	0.000000e+00
5.410715e+00	3.162910e+01	5.730578e-02	304633.000000	0.000000e+00
5.435244e+00	3.132338e+01	5.639259e-02	308527.000000	0.000000e+00
5.459823e+00	3.101601e+01	5.558452e-02	311361.000000	0.000000e+00
5.484389e+00	3.084032e+01	5.502806e-02	314101.000000	0.000000e+00
5.508889e+00	3.059892e+01	5.454041e-02	314757.000000	0.000000e+00
5.533464e+00	3.034697e+01	5.346829e-02	322135.000000	0.000000e+00
5.558036e+00	3.010669e+01	5.321122e-02	320125.000000	0.000000e+00
5.582484e+00	2.981022e+01	5.231820e-02	324657.000000	0.000000e+00
5.606956e+00	2.952212e+01	5.167160e-02	326431.000000	0.000000e+00
5.631560e+00	2.937144e+01	5.085180e-02	333609.000000	0.000000e+00
5.656168e+00	2.908427e+01	5.040057e-02	333001.000000	0.000000e+00
5.680698e+00	2.886009e+01	4.973623e-02	336705.000000	0.000000e+00
5.705204e+00	2.867013e+01	4.928184e-02	338443.000000	0.000000e+00
5.729704e+00	2.855874e+01	4.882149e-02	342181.000000	0.000000e+00
5.754232e+00	2.817020e+01	4.794951e-02	345153.000000	0.000000e+00
5.778772e+00	2.792995e+01	4.730365e-02	348619.000000	0.000000e+00
5.803342e+00	2.771892e+01	4.675817e-02	351429.000000	0.000000e+00
5.827902e+00	2.748202e+01	4.614372e-02	354709.000000	0.000000e+00
5.852409e+00	2.736212e+01	4.587094e-02	355815.000000	0.000000e+00
5.876957e+00	2.716327e+01	4.516454e-02	361717.000000	0.000000e+00
5.901534e+00	2.697246e+01	4.477752e-02	362845.000000	0.000000e+00
5.926030e+00	2.675326e+01	4.427134e-02	365181.000000	0.000000e+00
5.950548e+00	2.665944e+01	4.383692e-02	369847.000000	0.000000e+00
5.975137e+00	2.631924e+01	4.308491e-02	373161.000000	0.000000e+00
5.999657e+00	2.609332e+01	4.267371e-02	373885.000000	0.000000e+00
6.024161e+00	2.602043e+01	4.226709e-02	378987.000000	0.000000e+00
6.048714e+00	2.579455e+01	4.177415e-02	381277.000000	0.000000e+00
6.073267e+00	2.563397e+01	4.128731e-02	385477.000000	0.000000e+00
6.097868e+00	2.540548e+01	4.074170e-02	388845.000000	0.000000e+00
6.122369e+00	2.521543e+01	4.044889e-02	388615.000000	0.000000e+00
6.146867e+00	2.500207e+01	3.977688e-02	395085.000000	0.000000e+00
6.171452e+00	2.490396e+01	3.950616e-02	397381.000000	0.000000e+00
6.195974e+00	2.466905e+01	3.901149e-02	399871.000000	0.000000e+00
6.220444e+00	2.447798e+01	3.863106e-02	401493.000000	0.000000e+00
6.244986e+00	2.438446e+01	3.813159e-02	408937.000000	0.000000e+00
6.269588e+00	2.406628e+01	3.759480e-02	409791.000000	0.000000e+00
6.294124e+00	2.391618e+01	3.721413e-02	413017.000000	0.000000e+00
6.318633e+00	2.378026e+01	3.688032e-02	415761.000000	0.000000e+00
6.343202e+00	2.359625e+01	3.637237e-02	420865.000000	0.000000e+00
6.367770e+00	2.344125e+01	3.605207e-02	422767.000000	0.000000e+00
6.392288e+00	2.330239e+01	3.572654e-02	425421.000000	0.000000e+00
6.416837e+00	2.313221e+01	3.525477e-02	430525.000000	0.000000e+00
6.441383e+00	2.296193e+01	3.494602e-02	431739.000000	0.000000e+00
6.465913e+00	2.280395e+01	3.451481e-02	436525.000000	0.000000e+00
6.490433e+00	2.271170e+01	3.430328e-02	438357.000000	0.000000e+00
6.514946e+00	2.244867e+01	3.375145e-02	442381.000000	0.000000e+00
6.539518e+00	2.234459e+01	3.340006e-02	447559.000000	0.000000e+00
6.564059e+00	2.214213e+01	3.309070e-02	447741.000000	0.000000e+00
6.588587e+00	2.204502e+01	3.272299e-02	453853.000000	0.000000e+00
6.613110e+00	2.184148e+01	3.240023e-02	454431.000000	0.000000e+00
6.637622e+00	2.171396e+01	3.201684e-02	459961.000000	0.000000e+00
6.662172e+00	2.152526e+01	3.164216e-02	462769.000000	0.000000e+00
6.686693e+00	2.139315e+01	3.134686e-02	465759.000000	0.000000e+00
6.711227e+00	2.123934e+01	3.098218e-02	469957.000000	0.000000e+00
6.735777e+00	2.107443e+01	3.062701e-02	473481.000000	0.000000e+00
6.760323e+00	2.098352e+01	3.040627e-02	476245.000000	0.000000e+00
6.784855e+00	2.080658e+01	3.002224e-02	480303.000000	0.000000e+00
6.809427e+00	2.071526e+01	2.975849e-02	484573.000000	0.000000e+00
6.833979e+00	2.060956e+01	2.954816e-02	486493.000000	0.000000e+00
6.858503e+00	2.046488e+01	2.921734e-02	490611.000000	0.000000e+00
6.883055e+00	2.032582e+01	2.891122e-02	494269.000000	0.000000e+00
6.907584e+00	2.016758e+01	2.859924e-02	497277.000000	0.000000e+00
6.932134e+00	2.007574e+01	2.834366e-02	501685.000000	0.000000e+00
6.956669e+00	1.986406e+01	2.797658e-02	504135.000000	0.000000e+00
6.981221e+00	1.974623e+01	2.767335e-02	509149.000000	0.000000e+00
7.005753e+00	1.961574e+01	2.745071e-02	510625.000000	0.000000e+00
7.030233e+00	1.946272e+01	2.713531e-02	514443.000000	0.000000e+00
7.054782e+00	1.941459e+01	2.692234e-02	520033.000000	0.000000e+00
7.079343e+00	1.927595e+01	2.665953e-02	522789.000000	0.000000e+00
7.103883e+00	1.910567e+01	2.634303e-02	526009.000000	0.000000e+00
7.128424e+00	1.901174e+01	2.610294e-02	530475.000000	0.000000e+00
7.152965e+00	1.889967e+01	2.588769e-02	532993.000000	0.000000e+00
7.177501e+00	1.873008e+01	2.554692e-02	537529.000000	0.000000e+00
7.202013e+00	1.862374e+01	2.535096e-02	539691.000000	0.000000e+00
7.226577e+00	1.851164e+01	2.503775e-02	546637.000000	0.000000e+00
7.251125e+00	1.842356e+01	2.491133e-02	546957.000000	0.000000e+00
7.275651e+00	1.833687e+01	2.466597e-02	552655.000000	0.000000e+00
7.300226e+00	1.817019e+01	2.435321e-02	556681.000000	0.000000e+00
7.324759e+00	1.809079e+01	2.420725e-02	558501.000000	0.000000e+00
7.349299e+00	1.792584e+01	2.386523e-02	564193.000000	0.000000e+00
7.373825e+00	1.783568e+01	2.371667e-02	565551.000000	0.000000e+00
7.398312e+00	1.770461e+01	2.345377e-02	569833.000000	0.000000e+00
7.422892e+00	1.766799e+01	2.325161e-02	577389.000000	0.000000e+00
7.447442e+00	1.745409e+01	2.299117e-02	576331.000000	0.000000e+00
7.471956e+00	1.739987e+01	2.279116e-02	582853.000000	0.000000e+00
