# [<k> (h/Mpc)]	[<P_0(k)> (Mpc/h)^3]	[ErrorBar (Mpc/h)^3]	nModes	[<P_2(k)> (Mpc/h)^3]
3.476422e-02	1.500026e+04	4.160324e+03	13.000000	0.000000e+00
5.890282e-02	1.097972e+04	1.911324e+03	33.000000	0.000000e+00
8.378087e-02	6.475765e+03	7.285805e+02	79.000000	0.000000e+00
1.087368e-01	4.976286e+03	4.600578e+02	117.000000	0.000000e+00
1.341836e-01	3.721198e+03	2.598997e+02	205.000000	0.000000e+00
1.581206e-01	2.746649e+03	1.791716e+02	235.000000	0.000000e+00
1.826843e-01	2.127046e+03	1.107296e+02	369.000000	0.000000e+00
2.073525e-01	1.961794e+03	9.427779e+01	433.000000	0.000000e+00
2.322407e-01	1.713200e+03	7.083211e+01	585.000000	0.000000e+00
2.568838e-01	1.444143e+03	5.542113e+01	679.000000	0.000000e+00
2.811185e-01	1.310268e+03	4.595310e+01	813.000000	0.000000e+00
3.057758e-01	1.160339e+03	3.697149e+01	985.000000	0.000000e+00
3.308750e-01	1.120321e+03	3.257243e+01	1183.000000	0.000000e+00
3.553459e-01	1.038661e+03	2.915701e+01	1269.000000	0.000000e+00
3.797184e-01	8.891853e+02	2.268064e+01	1537.000000	0.000000e+00
4.042043e-01	8.664922e+02	2.131220e+01	1653.000000	0.000000e+00
4.287408e-01	7.822172e+02	1.765498e+01	1963.000000	0.000000e+00
4.533372e-01	7.659650e+02	1.663178e+01	2121.000000	0.000000e+00
4.779960e-01	7.192264e+02	1.464155e+01	2413.000000	0.000000e+00
5.026630e-01	6.825633e+02	1.329697e+01	2635.000000	0.000000e+00
5.271488e-01	6.174438e+02	1.151138e+01	2877.000000	0.000000e+00
5.515428e-01	6.012626e+02	1.068078e+01	3169.000000	0.000000e+00
5.762241e-01	5.662916e+02	9.562518e+00	3507.000000	0.000000e+00
6.007286e-01	5.701393e+02	9.392090e+00	3685.000000	0.000000e+00
6.252569e-01	5.416119e+02	8.392294e+00	4165.000000	0.000000e+00
6.499966e-01	5.262807e+02	7.954798e+00	4377.000000	0.000000e+00
6.746858e-01	4.930482e+02	7.076113e+00	4855.000000	0.000000e+00
6.991271e-01	4.861353e+02	6.924330e+00	4929.000000	0.000000e+00
7.235757e-01	4.681484e+02	6.266536e+00	5581.000000	0.000000e+00
7.479714e-01	4.516339e+02	5.993088e+00	5679.000000	0.000000e+00
7.726133e-01	4.406380e+02	5.514441e+00	6385.000000	0.000000e+00
7.972413e-01	4.223610e+02	5.217515e+00	6553.000000	0.000000e+00
8.218513e-01	4.146487e+02	4.912334e+00	7125.000000	0.000000e+00
8.464491e-01	3.977257e+02	4.608854e+00	7447.000000	0.000000e+00
8.709767e-01	3.907193e+02	4.387889e+00	7929.000000	0.000000e+00
8.955547e-01	3.759966e+02	4.113985e+00	8353.000000	0.000000e+00
9.199772e-01	3.677854e+02	3.926186e+00	8775.000000	0.000000e+00
9.444963e-01	3.662824e+02	3.795519e+00	9313.000000	0.000000e+00
9.690846e-01	3.571901e+02	3.600641e+00	9841.000000	0.000000e+00
9.935517e-01	3.493061e+02	3.460172e+00	10191.000000	0.000000e+00
1.018099e+00	3.413104e+02	3.269611e+00	10897.000000	0.000000e+00
1.042679e+00	3.324561e+02	3.127345e+00	11301.000000	0.000000e+00
1.067353e+00	3.234472e+02	2.949585e+00	12025.000000	0.000000e+00
1.092004e+00	3.146629e+02	2.823139e+00	12423.000000	0.000000e+00
1.116549e+00	3.083239e+02	2.701998e+00	13021.000000	0.000000e+00
1.140967e+00	3.045103e+02	2.630077e+00	13405.000000	0.000000e+00
1.165410e+00	2.942597e+02	2.465296e+00	14247.000000	0.000000e+00
1.189942e+00	2.844755e+02	2.350074e+00	14653.000000	0.000000e+00
1.214340e+00	2.837737e+02	2.291704e+00	15333.000000	0.000000e+00
1.238824e+00	2.774506e+02	2.196944e+00	15949.000000	0.000000e+00
1.263616e+00	2.685758e+02	2.056317e+00	17059.000000	0.000000e+00
1.288278e+00	2.644919e+02	2.022798e+00	17097.000000	0.000000e+00
1.312698e+00	2.579628e+02	1.924613e+00	17965.000000	0.000000e+00
1.337129e+00	2.522336e+02	1.852906e+00	18531.000000	0.000000e+00
1.361846e+00	2.499391e+02	1.782145e+00	19669.000000	0.000000e+00
1.386459e+00	2.438349e+02	1.728804e+00	19893.000000	0.000000e+00
1.410760e+00	2.379960e+02	1.662845e+00	20485.000000	0.000000e+00
1.435294e+00	2.378716e+02	1.612884e+00	21751.000000	0.000000e+00
1.459966e+00	2.305182e+02	1.546823e+00	22209.000000	0.000000e+00
1.484553e+00	2.268184e+02	1.494265e+00	23041.000000	0.000000e+00
1.509059e+00	2.242254e+02	1.456777e+00	23691.000000	0.000000e+00
1.533565e+00	2.177103e+02	1.392122e+00	24457.000000	0.000000e+00
1.558284e+00	2.172645e+02	1.352708e+00	25797.000000	0.000000e+00
1.582818e+00	2.126519e+02	1.328374e+00	25627.000000	0.000000e+00
1.607259e+00	2.083876e+02	1.263141e+00	27217.000000	0.000000e+00
1.631809e+00	2.041605e+02	1.230039e+00	27549.000000	0.000000e+00
1.656366e+00	2.000989e+02	1.178828e+00	28813.000000	0.000000e+00
1.680925e+00	1.979900e+02	1.155586e+00	29355.000000	0.000000e+00
1.705257e+00	1.930956e+02	1.116383e+00	29917.000000	0.000000e+00
1.729806e+00	1.904901e+02	1.070693e+00	31653.000000	0.000000e+00
1.754462e+00	1.870567e+02	1.046480e+00	31951.000000	0.000000e+00
1.778992e+00	1.820629e+02	1.001298e+00	33061.000000	0.000000e+00
1.803411e+00	1.793037e+02	9.782258e-01	33597.000000	0.000000e+00
1.827963e+00	1.782766e+02	9.502579e-01	35197.000000	0.000000e+00
1.852647e+00	1.732387e+02	9.153010e-01	35823.000000	0.000000e+00
1.877249e+00	1.715675e+02	8.925525e-01	36949.000000	0.000000e+00
1.901733e+00	1.675618e+02	8.674974e-01	37309.000000	0.000000e+00
1.926241e+00	1.644554e+02	8.319529e-01	39075.000000	0.000000e+00
1.950830e+00	1.623587e+02	8.182315e-01	39373.000000	0.000000e+00
1.975308e+00	1.610175e+02	7.968333e-01	40833.000000	0.000000e+00
1.999729e+00	1.583595e+02	7.801530e-01	41203.000000	0.000000e+00
2.024419e+00	1.542989e+02	7.382047e-01	43689.000000	0.000000e+00
2.049126e+00	1.517377e+02	7.274180e-01	43513.000000	0.000000e+00
2.073508e+00	1.506537e+02	7.146732e-01	44437.000000	0.000000e+00
2.097846e+00	1.482920e+02	6.940529e-01	45651.000000	0.000000e+00
2.122473e+00	1.451216e+02	6.659687e-01	47485.000000	0.000000e+00
2.147106e+00	1.430725e+02	6.532993e-01	47961.000000	0.000000e+00
2.171601e+00	1.410114e+02	6.360712e-01	49147.000000	0.000000e+00
2.196158e+00	1.383321e+02	6.166393e-01	50325.000000	0.000000e+00
2.220735e+00	1.365958e+02	6.010442e-01	51649.000000	0.000000e+00
2.245251e+00	1.348679e+02	5.905669e-01	52153.000000	0.000000e+00
2.269729e+00	1.330043e+02	5.726617e-01	53943.000000	0.000000e+00
2.294271e+00	1.311523e+02	5.607819e-01	54697.000000	0.000000e+00
2.318928e+00	1.284392e+02	5.391799e-01	56745.000000	0.000000e+00
2.343538e+00	1.265641e+02	5.300860e-01	57007.000000	0.000000e+00
2.368026e+00	1.249832e+02	5.169141e-01	58461.000000	0.000000e+00
2.392423e+00	1.215810e+02	5.003673e-01	59041.000000	0.000000e+00
2.416863e+00	1.199224e+02	4.854921e-01	61015.000000	0.000000e+00
2.441509e+00	1.191773e+02	4.761876e-01	62637.000000	0.000000e+00
2.466080e+00	1.169953e+02	4.654966e-01	63169.000000	0.000000e+00
2.490575e+00	1.152448e+02	4.534069e-01	64605.000000	0.000000e+00
2.515186e+00	1.138119e+02	4.413869e-01	66487.000000	0.000000e+00
2.539777e+00	1.126804e+02	4.352153e-01	67033.000000	0.000000e+00
2.564215e+00	1.111491e+02	4.254840e-01	68241.000000	0.000000e+00
2.588707e+00	1.095072e+02	4.139250e-01	69991.000000	0.000000e+00
2.613337e+00	1.074963e+02	4.019991e-01	71505.000000	0.000000e+00
2.637925e+00	1.069707e+02	3.967079e-01	72709.000000	0.000000e+00
2.662420e+00	1.042762e+02	3.846994e-01	73473.000000	0.000000e+00
2.686963e+00	1.027904e+02	3.734429e-01	75763.000000	0.000000e+00
2.711515e+00	1.022662e+02	3.703233e-01	76261.000000	0.000000e+00
2.735982e+00	1.002917e+02	3.591363e-01	77985.000000	0.000000e+00
2.760573e+00	9.897094e+01	3.498910e-01	80011.000000	0.000000e+00
2.785237e+00	9.720688e+01	3.415312e-01	81009.000000	0.000000e+00
2.809671e+00	9.664122e+01	3.383099e-01	81601.000000	0.000000e+00
2.834151e+00	9.480182e+01	3.269398e-01	84081.000000	0.000000e+00
2.858722e+00	9.351383e+01	3.204502e-01	85159.000000	0.000000e+00
2.883250e+00	9.287699e+01	3.154905e-01	86665.000000	0.000000e+00
2.907819e+00	9.106147e+01	3.063751e-01	88341.000000	0.000000e+00
2.932335e+00	9.010463e+01	3.012219e-01	89479.000000	0.000000e+00
2.956914e+00	8.861678e+01	2.929244e-01	91521.000000	0.000000e+00
2.981449e+00	8.733325e+01	2.872664e-01	92425.000000	0.000000e+00
3.005876e+00	8.653409e+01	2.828773e-01	93579.000000	0.000000e+00
3.030403e+00	8.544739e+01	2.753489e-01	96301.000000	0.000000e+00
3.055041e+00	8.410499e+01	2.691349e-01	97657.000000	0.000000e+00
3.079692e+00	8.309502e+01	2.635707e-01	99393.000000	0.000000e+00
3.104241e+00	8.201345e+01	2.590968e-01	100195.000000	0.000000e+00
3.128710e+00	8.130756e+01	2.549478e-01	101709.000000	0.000000e+00
3.153123e+00	8.027446e+01	2.501005e-01	103021.000000	0.000000e+00
3.177619e+00	7.911336e+01	2.434465e-01	105607.000000	0.000000e+00
3.202185e+00	7.850687e+01	2.402170e-01	106809.000000	0.000000e+00
3.226708e+00	7.712570e+01	2.340228e-01	108613.000000	0.000000e+00
3.251321e+00	7.614858e+01	2.287858e-01	110781.000000	0.000000e+00
3.275882e+00	7.509619e+01	2.247513e-01	111643.000000	0.000000e+00
3.300393e+00	7.443793e+01	2.207947e-01	113661.000000	0.000000e+00
3.324955e+00	7.339780e+01	2.161931e-01	115261.000000	0.000000e+00
3.349528e+00	7.277830e+01	2.123387e-01	117475.000000	0.000000e+00
3.374087e+00	7.192035e+01	2.090240e-01	118389.000000	0.000000e+00
3.398541e+00	7.088676e+01	2.046214e-01	120013.000000	0.000000e+00
3.423011e+00	7.012931e+01	2.008628e-01	121899.000000	0.000000e+00
3.447546e+00	6.900889e+01	1.958797e-01	124117.000000	0.000000e+00
3.472176e+00	6.841005e+01	1.922139e-01	126669.000000	0.000000e+00
3.496772e+00	6.762091e+01	1.897780e-01	126961.000000	0.000000e+00
3.521302e+00	6.690504e+01	1.856362e-01	129895.000000	0.000000e+00
3.545845e+00	6.579962e+01	1.821726e-01	130461.000000	0.000000e+00
3.570351e+00	6.548918e+01	1.793578e-01	133321.000000	0.000000e+00
3.594817e+00	6.439658e+01	1.761660e-01	133623.000000	0.000000e+00
3.619340e+00	6.412416e+01	1.729847e-01	137413.000000	0.000000e+00
3.643921e+00	6.317873e+01	1.699231e-01	138241.000000	0.000000e+00
3.668501e+00	6.230897e+01	1.659591e-01	140961.000000	0.000000e+00
3.693083e+00	6.156192e+01	1.632219e-01	142255.000000	0.000000e+00
3.717636e+00	6.056215e+01	1.595039e-01	144165.000000	0.000000e+00
3.742123e+00	6.026142e+01	1.580533e-01	145369.000000	0.000000e+00
3.766623e+00	5.962383e+01	1.548849e-01	148191.000000	0.000000e+00
3.791211e+00	5.901144e+01	1.522690e-01	150193.000000	0.000000e+00
3.815740e+00	5.817259e+01	1.494669e-01	151477.000000	0.000000e+00
3.840250e+00	5.753084e+01	1.467170e-01	153759.000000	0.000000e+00
3.864816e+00	5.725943e+01	1.449160e-01	156121.000000	0.000000e+00
3.889416e+00	5.668289e+01	1.424981e-01	158229.000000	0.000000e+00
3.913984e+00	5.588655e+01	1.398856e-01	159613.000000	0.000000e+00
3.938439e+00	5.499510e+01	1.371236e-01	160851.000000	0.000000e+00
3.962856e+00	5.460452e+01	1.352704e-01	162949.000000	0.000000e+00
3.987408e+00	5.389872e+01	1.319475e-01	166861.000000	0.000000e+00
4.011951e+00	5.344114e+01	1.307936e-01	166947.000000	0.000000e+00
4.036502e+00	5.291497e+01	1.280334e-01	170809.000000	0.000000e+00
4.061101e+00	5.248431e+01	1.265358e-01	172041.000000	0.000000e+00
4.085632e+00	5.191167e+01	1.245171e-01	173809.000000	0.000000e+00
4.110226e+00	5.149788e+01	1.222766e-01	177375.000000	0.000000e+00
4.134760e+00	5.083176e+01	1.208305e-01	176977.000000	0.000000e+00
4.159247e+00	5.039088e+01	1.184999e-01	180829.000000	0.000000e+00
4.183807e+00	4.967283e+01	1.162489e-01	182583.000000	0.000000e+00
4.208321e+00	4.916862e+01	1.145923e-01	184105.000000	0.000000e+00
4.232839e+00	4.874279e+01	1.126288e-01	187293.000000	0.000000e+00
4.257376e+00	4.842995e+01	1.115977e-01	188329.000000	0.000000e+00
4.281944e+00	4.761871e+01	1.085469e-01	192451.000000	0.000000e+00
4.306505e+00	4.728599e+01	1.077510e-01	192585.000000	0.000000e+00
4.331033e+00	4.664497e+01	1.053288e-01	196117.000000	0.000000e+00
4.355617e+00	4.619748e+01	1.037669e-01	198207.000000	0.000000e+00
4.380161e+00	4.588060e+01	1.026957e-01	199597.000000	0.000000e+00
4.404676e+00	4.561893e+01	1.013611e-01	202557.000000	0.000000e+00
4.429249e+00	4.499142e+01	9.940652e-02	204847.000000	0.000000e+00
4.453772e+00	4.475278e+01	9.852065e-02	206341.000000	0.000000e+00
4.478282e+00	4.408915e+01	9.639028e-02	209217.000000	0.000000e+00
4.502777e+00	4.382398e+01	9.551698e-02	210505.000000	0.000000e+00
4.527289e+00	4.347529e+01	9.391445e-02	214299.000000	0.000000e+00
4.551889e+00	4.275545e+01	9.187500e-02	216565.000000	0.000000e+00
4.576426e+00	4.251757e+01	9.110005e-02	217821.000000	0.000000e+00
4.600893e+00	4.202613e+01	8.957253e-02	220135.000000	0.000000e+00
4.625467e+00	4.156980e+01	8.777249e-02	224305.000000	0.000000e+00
4.650035e+00	4.148345e+01	8.747170e-02	224913.000000	0.000000e+00
4.674541e+00	4.094520e+01	8.579978e-02	227737.000000	0.000000e+00
4.699104e+00	4.033063e+01	8.394294e-02	230835.000000	0.000000e+00
4.723670e+00	4.012724e+01	8.317049e-02	232777.000000	0.000000e+00
4.748182e+00	3.981283e+01	8.223598e-02	234381.000000	0.000000e+00
4.772682e+00	3.943126e+01	8.088485e-02	237655.000000	0.000000e+00
4.797203e+00	3.908730e+01	7.990038e-02	239317.000000	0.000000e+00
4.821755e+00	3.871781e+01	7.845639e-02	243537.000000	0.000000e+00
4.846361e+00	3.845594e+01	7.765676e-02	245227.000000	0.000000e+00
4.870915e+00	3.796361e+01	7.634537e-02	247269.000000	0.000000e+00
4.895426e+00	3.772126e+01	7.549916e-02	249625.000000	0.000000e+00
4.919952e+00	3.752881e+01	7.470923e-02	252337.000000	0.000000e+00
4.944496e+00	3.705164e+01	7.332446e-02	255339.000000	0.000000e+00
4.969013e+00	3.666188e+01	7.239369e-02	256465.000000	0.000000e+00
4.993562e+00	3.642744e+01	7.126583e-02	261273.000000	0.000000e+00
5.018138e+00	3.607162e+01	7.043587e-02	262267.000000	0.000000e+00
5.042642e+00	3.574441e+01	6.947792e-02	264681.000000	0.000000e+00
5.067215e+00	3.530976e+01	6.806860e-02	269089.000000	0.000000e+00
5.091775e+00	3.521660e+01	6.785572e-02	269353.000000	0.000000e+00
5.116309e+00	3.493586e+01	6.673727e-02	274035.000000	0.000000e+00
5.140838e+00	3.457176e+01	6.601308e-02	274273.000000	0.000000e+00
5.165333e+00	3.433661e+01	6.506263e-02	278517.000000	0.000000e+00
5.189818e+00	3.408485e+01	6.447893e-02	279439.000000	0.000000e+00
5.214351e+00	3.371115e+01	6.317370e-02	284757.000000	0.000000e+00
5.238947e+00	3.353244e+01	6.265775e-02	286405.000000	0.000000e+00
5.263479e+00	3.315509e+01	6.172485e-02	288523.000000	0.000000e+00
5.288002e+00	3.289304e+01	6.090709e-02	291657.000000	0.000000e+00
5.312546e+00	3.252180e+01	5.994121e-02	294373.000000	0.000000e+00
5.337121e+00	3.239834e+01	5.936660e-02	297825.000000	0.000000e+00
5.361672e+00	3.213691e+01	5.873530e-02	299371.000000	0.000000e+00
5.386196e+00	3.185067e+01	5.789949e-02	302613.000000	0.000000e+00
5.410715e+00	3.162437e+01	5.729721e-02	304633.000000	0.000000e+00
5.435244e+00	3.131795e+01	5.638280e-02	308527.000000	0.000000e+00
5.459823e+00	3.101103e+01	5.557559e-02	311361.000000	0.000000e+00
5.484389e+00	3.083537e+01	5.501922e-02	314101.000000	0.000000e+00
5.508889e+00	3.059413e+01	5.453188e-02	314757.000000	0.000000e+00
5.533464e+00	3.034246e+01	5.346035e-02	322135.000000	0.000000e+00
5.558036e+00	3.010202e+01	5.320297e-02	320125.000000	0.000000e+00
5.582484e+00	2.980612e+01	5.231101e-02	324657.000000	0.000000e+00
5.606956e+00	2.951698e+01	5.166259e-02	326431.000000	0.000000e+00
5.631560e+00	2.936675e+01	5.084369e-02	333609.000000	0.000000e+00
5.656168e+00	2.907992e+01	5.039303e-02	333001.000000	0.000000e+00
5.680698e+00	2.885540e+01	4.972816e-02	336705.000000	0.000000e+00
5.705204e+00	2.866530e+01	4.927353e-02	338443.000000	0.000000e+00
5.729704e+00	2.855427e+01	4.881386e-02	342181.000000	0.000000e+00
5.754232e+00	2.816611e+01	4.794255e-02	345153.000000	0.000000e+00
5.778772e+00	2.792565e+01	4.729637e-02	348619.000000	0.000000e+00
5.803342e+00	2.771465e+01	4.675097e-02	351429.000000	0.000000e+00
5.827902e+00	2.747778e+01	4.613659e-02	354709.000000	0.000000e+00
5.852409e+00	2.735782e+01	4.586373e-02	355815.000000	0.000000e+00
5.876957e+00	2.715831e+01	4.515630e-02	361717.000000	0.000000e+00
5.901534e+00	2.696805e+01	4.477019e-02	362845.000000	0.000000e+00
5.926030e+00	2.674907e+01	4.426441e-02	365181.000000	0.000000e+00
5.950548e+00	2.665516e+01	4.382988e-02	369847.000000	0.000000e+00
5.975137e+00	2.631515e+01	4.307821e-02	373161.000000	0.000000e+00
5.999657e+00	2.608920e+01	4.266697e-02	373885.000000	0.000000e+00
6.024161e+00	2.601647e+01	4.226066e-02	378987.000000	0.000000e+00
6.048714e+00	2.579057e+01	4.176771e-02	381277.000000	0.000000e+00
6.073267e+00	2.562986e+01	4.128069e-02	385477.000000	0.000000e+00
6.097868e+00	2.540121e+01	4.073486e-02	388845.000000	0.000000e+00
6.122369e+00	2.521099e+01	4.044177e-02	388615.000000	0.000000e+00
6.146867e+00	2.499793e+01	3.977029e-02	395085.000000	0.000000e+00
6.171452e+00	2.489937e+01	3.949889e-02	397381.000000	0.000000e+00
6.195974e+00	2.466496e+01	3.900502e-02	399871.000000	0.000000e+00
6.220444e+00	2.447358e+01	3.862411e-02	401493.000000	0.000000e+00
6.244986e+00	2.438011e+01	3.812480e-02	408937.000000	0.000000e+00
6.269588e+00	2.406209e+01	3.758825e-02	409791.000000	0.000000e+00
6.294124e+00	2.391191e+01	3.720748e-02	413017.000000	0.000000e+00
6.318633e+00	2.377647e+01	3.687445e-02	415761.000000	0.000000e+00
6.343202e+00	2.359226e+01	3.636622e-02	420865.000000	0.000000e+00
6.367770e+00	2.343725e+01	3.604591e-02	422767.000000	0.000000e+00
6.392288e+00	2.329823e+01	3.572016e-02	425421.000000	0.000000e+00
6.416837e+00	2.312848e+01	3.524909e-02	430525.000000	0.000000e+00
6.441383e+00	2.295803e+01	3.494009e-02	431739.000000	0.000000e+00
6.465913e+00	2.280021e+01	3.450915e-02	436525.000000	0.000000e+00
6.490433e+00	2.270783e+01	3.429744e-02	438357.000000	0.000000e+00
6.514946e+00	2.244477e+01	3.374558e-02	442381.000000	0.000000e+00
6.539518e+00	2.234088e+01	3.339452e-02	447559.000000	0.000000e+00
6.564059e+00	2.213833e+01	3.308502e-02	447741.000000	0.000000e+00
6.588587e+00	2.204112e+01	3.271720e-02	453853.000000	0.000000e+00
6.613110e+00	2.183727e+01	3.239398e-02	454431.000000	0.000000e+00
6.637622e+00	2.171000e+01	3.201100e-02	459961.000000	0.000000e+00
6.662172e+00	2.152142e+01	3.163653e-02	462769.000000	0.000000e+00
6.686693e+00	2.138928e+01	3.134119e-02	465759.000000	0.000000e+00
6.711227e+00	2.123521e+01	3.097615e-02	469957.000000	0.000000e+00
6.735777e+00	2.107053e+01	3.062135e-02	473481.000000	0.000000e+00
6.760323e+00	2.098006e+01	3.040126e-02	476245.000000	0.000000e+00
6.784855e+00	2.080288e+01	3.001690e-02	480303.000000	0.000000e+00
6.809427e+00	2.071164e+01	2.975328e-02	484573.000000	0.000000e+00
6.833979e+00	2.060574e+01	2.954268e-02	486493.000000	0.000000e+00
6.858503e+00	2.046120e+01	2.921208e-02	490611.000000	0.000000e+00
6.883055e+00	2.032191e+01	2.890566e-02	494269.000000	0.000000e+00
6.907584e+00	2.016371e+01	2.859376e-02	497277.000000	0.000000e+00
6.932134e+00	2.007202e+01	2.833841e-02	501685.000000	0.000000e+00
6.956669e+00	1.986064e+01	2.797176e-02	504135.000000	0.000000e+00
6.981221e+00	1.974269e+01	2.766839e-02	509149.000000	0.000000e+00
7.005753e+00	1.961205e+01	2.744554e-02	510625.000000	0.000000e+00
7.030233e+00	1.945917e+01	2.713036e-02	514443.000000	0.000000e+00
7.054782e+00	1.941103e+01	2.691741e-02	520033.000000	0.000000e+00
7.079343e+00	1.927241e+01	2.665463e-02	522789.000000	0.000000e+00
7.103883e+00	1.910222e+01	2.633827e-02	526009.000000	0.000000e+00
7.128424e+00	1.900839e+01	2.609834e-02	530475.000000	0.000000e+00
7.152965e+00	1.889641e+01	2.588324e-02	532993.000000	0.000000e+00
7.177501e+00	1.872661e+01	2.554219e-02	537529.000000	0.000000e+00
7.202013e+00	1.862053e+01	2.534658e-02	539691.000000	0.000000e+00
7.226577e+00	1.850822e+01	2.503313e-02	546637.000000	0.000000e+00
7.251125e+00	1.842022e+01	2.490681e-02	546957.000000	0.000000e+00
7.275651e+00	1.833355e+01	2.466150e-02	552655.000000	0.000000e+00
7.300226e+00	1.816685e+01	2.434874e-02	556681.000000	0.000000e+00
7.324759e+00	1.808715e+01	2.420238e-02	558501.000000	0.000000e+00
7.349299e+00	1.792245e+01	2.386072e-02	564193.000000	0.000000e+00
7.373825e+00	1.783250e+01	2.371245e-02	565551.000000	0.000000e+00
7.398312e+00	1.770154e+01	2.344970e-02	569833.000000	0.000000e+00
7.422892e+00	1.766512e+01	2.324782e-02	577389.000000	0.000000e+00
7.447442e+00	1.745124e+01	2.298743e-02	576331.000000	0.000000e+00
7.471956e+00	1.739688e+01	2.278725e-02	582853.000000	0.000000e+00
