# [<k> (h/Mpc)]	[<P_0(k)> (Mpc/h)^3]	[ErrorBar (Mpc/h)^3]	nModes	[<P_2(k)> (Mpc/h)^3]
3.476422e-02	1.501314e+04	4.163897e+03	13.000000	0.000000e+00
5.890282e-02	1.097154e+04	1.909899e+03	33.000000	0.000000e+00
8.378087e-02	6.480344e+03	7.290956e+02	79.000000	0.000000e+00
1.087368e-01	4.976322e+03	4.600612e+02	117.000000	0.000000e+00
1.341836e-01	3.720727e+03	2.598668e+02	205.000000	0.000000e+00
1.581206e-01	2.746961e+03	1.791920e+02	235.000000	0.000000e+00
1.826843e-01	2.127136e+03	1.107343e+02	369.000000	0.000000e+00
2.073525e-01	1.961956e+03	9.428559e+01	433.000000	0.000000e+00
2.322407e-01	1.713508e+03	7.084483e+01	585.000000	0.000000e+00
2.568838e-01	1.444151e+03	5.542143e+01	679.000000	0.000000e+00
2.811185e-01	1.310257e+03	4.595272e+01	813.000000	0.000000e+00
3.057758e-01	1.160021e+03	3.696135e+01	985.000000	0.000000e+00
3.308750e-01	1.120800e+03	3.258636e+01	1183.000000	0.000000e+00
3.553459e-01	1.039142e+03	2.917051e+01	1269.000000	0.000000e+00
3.797184e-01	8.895376e+02	2.268963e+01	1537.000000	0.000000e+00
4.042043e-01	8.668741e+02	2.132159e+01	1653.000000	0.000000e+00
4.287408e-01	7.821229e+02	1.765285e+01	1963.000000	0.000000e+00
4.533372e-01	7.661361e+02	1.663549e+01	2121.000000	0.000000e+00
4.779960e-01	7.194934e+02	1.464698e+01	2413.000000	0.000000e+00
5.026630e-01	6.825764e+02	1.329722e+01	2635.000000	0.000000e+00
5.271488e-01	6.177632e+02	1.151734e+01	2877.000000	0.000000e+00
5.515428e-01	6.013201e+02	1.068180e+01	3169.000000	0.000000e+00
5.762241e-01	5.664068e+02	9.564462e+00	3507.000000	0.000000e+00
6.007286e-01	5.702269e+02	9.393533e+00	3685.000000	0.000000e+00
6.252569e-01	5.417229e+02	8.394015e+00	4165.000000	0.000000e+00
6.499966e-01	5.264280e+02	7.957025e+00	4377.000000	0.000000e+00
6.746858e-01	4.929000e+02	7.073986e+00	4855.000000	0.000000e+00
6.991271e-01	4.861709e+02	6.924837e+00	4929.000000	0.000000e+00
7.235757e-01	4.683845e+02	6.269697e+00	5581.000000	0.000000e+00
7.479714e-01	4.519877e+02	5.997782e+00	5679.000000	0.000000e+00
7.726133e-01	4.406906e+02	5.515100e+00	6385.000000	0.000000e+00
7.972413e-01	4.227208e+02	5.221960e+00	6553.000000	0.000000e+00
8.218513e-01	4.147525e+02	4.913563e+00	7125.000000	0.000000e+00
8.464491e-01	3.980666e+02	4.612805e+00	7447.000000	0.000000e+00
8.709767e-01	3.908918e+02	4.389827e+00	7929.000000	0.000000e+00
8.955547e-01	3.760142e+02	4.114177e+00	8353.000000	0.000000e+00
9.199772e-01	3.679975e+02	3.928451e+00	8775.000000	0.000000e+00
9.444963e-01	3.665696e+02	3.798495e+00	9313.000000	0.000000e+00
9.690846e-01	3.574022e+02	3.602779e+00	9841.000000	0.000000e+00
9.935517e-01	3.496650e+02	3.463728e+00	10191.000000	0.000000e+00
1.018099e+00	3.415423e+02	3.271832e+00	10897.000000	0.000000e+00
1.042679e+00	3.328020e+02	3.130600e+00	11301.000000	0.000000e+00
1.067353e+00	3.237423e+02	2.952275e+00	12025.000000	0.000000e+00
1.092004e+00	3.147609e+02	2.824018e+00	12423.000000	0.000000e+00
1.116549e+00	3.086567e+02	2.704914e+00	13021.000000	0.000000e+00
1.140967e+00	3.048569e+02	2.633072e+00	13405.000000	0.000000e+00
1.165410e+00	2.946167e+02	2.468287e+00	14247.000000	0.000000e+00
1.189942e+00	2.848444e+02	2.353122e+00	14653.000000	0.000000e+00
1.214340e+00	2.840876e+02	2.294239e+00	15333.000000	0.000000e+00
1.238824e+00	2.777785e+02	2.199540e+00	15949.000000	0.000000e+00
1.263616e+00	2.688760e+02	2.058615e+00	17059.000000	0.000000e+00
1.288278e+00	2.648958e+02	2.025887e+00	17097.000000	0.000000e+00
1.312698e+00	2.582813e+02	1.926989e+00	17965.000000	0.000000e+00
1.337129e+00	2.525210e+02	1.855018e+00	18531.000000	0.000000e+00
1.361846e+00	2.503190e+02	1.784854e+00	19669.000000	0.000000e+00
1.386459e+00	2.441823e+02	1.731267e+00	19893.000000	0.000000e+00
1.410760e+00	2.382083e+02	1.664328e+00	20485.000000	0.000000e+00
1.435294e+00	2.380884e+02	1.614353e+00	21751.000000	0.000000e+00
1.459966e+00	2.308686e+02	1.549175e+00	22209.000000	0.000000e+00
1.484553e+00	2.271806e+02	1.496651e+00	23041.000000	0.000000e+00
1.509059e+00	2.245546e+02	1.458916e+00	23691.000000	0.000000e+00
1.533565e+00	2.180570e+02	1.394339e+00	24457.000000	0.000000e+00
1.558284e+00	2.176467e+02	1.355088e+00	25797.000000	0.000000e+00
1.582818e+00	2.130397e+02	1.330797e+00	25627.000000	0.000000e+00
1.607259e+00	2.086737e+02	1.264875e+00	27217.000000	0.000000e+00
1.631809e+00	2.045839e+02	1.232589e+00	27549.000000	0.000000e+00
1.656366e+00	2.005038e+02	1.181214e+00	28813.000000	0.000000e+00
1.680925e+00	1.982380e+02	1.157033e+00	29355.000000	0.000000e+00
1.705257e+00	1.934235e+02	1.118279e+00	29917.000000	0.000000e+00
1.729806e+00	1.907766e+02	1.072303e+00	31653.000000	0.000000e+00
1.754462e+00	1.874396e+02	1.048623e+00	31951.000000	0.000000e+00
1.778992e+00	1.824945e+02	1.003672e+00	33061.000000	0.000000e+00
1.803411e+00	1.796579e+02	9.801578e-01	33597.000000	0.000000e+00
1.827963e+00	1.787080e+02	9.525572e-01	35197.000000	0.000000e+00
1.852647e+00	1.736928e+02	9.177002e-01	35823.000000	0.000000e+00
1.877249e+00	1.719130e+02	8.943495e-01	36949.000000	0.000000e+00
1.901733e+00	1.680861e+02	8.702118e-01	37309.000000	0.000000e+00
1.926241e+00	1.649627e+02	8.345193e-01	39075.000000	0.000000e+00
1.950830e+00	1.627508e+02	8.202079e-01	39373.000000	0.000000e+00
1.975308e+00	1.615551e+02	7.994934e-01	40833.000000	0.000000e+00
1.999729e+00	1.586688e+02	7.816766e-01	41203.000000	0.000000e+00
2.024419e+00	1.548089e+02	7.406445e-01	43689.000000	0.000000e+00
2.049126e+00	1.521638e+02	7.294604e-01	43513.000000	0.000000e+00
2.073508e+00	1.511120e+02	7.168470e-01	44437.000000	0.000000e+00
2.097846e+00	1.487872e+02	6.963706e-01	45651.000000	0.000000e+00
2.122473e+00	1.455934e+02	6.681340e-01	47485.000000	0.000000e+00
2.147106e+00	1.436104e+02	6.557553e-01	47961.000000	0.000000e+00
2.171601e+00	1.414538e+02	6.380666e-01	49147.000000	0.000000e+00
2.196158e+00	1.388424e+02	6.189138e-01	50325.000000	0.000000e+00
2.220735e+00	1.371613e+02	6.035325e-01	51649.000000	0.000000e+00
2.245251e+00	1.354328e+02	5.930403e-01	52153.000000	0.000000e+00
2.269729e+00	1.335298e+02	5.749244e-01	53943.000000	0.000000e+00
2.294271e+00	1.317317e+02	5.632597e-01	54697.000000	0.000000e+00
2.318928e+00	1.290340e+02	5.416770e-01	56745.000000	0.000000e+00
2.343538e+00	1.271200e+02	5.324146e-01	57007.000000	0.000000e+00
2.368026e+00	1.256071e+02	5.194948e-01	58461.000000	0.000000e+00
2.392423e+00	1.221445e+02	5.026862e-01	59041.000000	0.000000e+00
2.416863e+00	1.204705e+02	4.877110e-01	61015.000000	0.000000e+00
2.441509e+00	1.197044e+02	4.782937e-01	62637.000000	0.000000e+00
2.466080e+00	1.175795e+02	4.678209e-01	63169.000000	0.000000e+00
2.490575e+00	1.158672e+02	4.558559e-01	64605.000000	0.000000e+00
2.515186e+00	1.143660e+02	4.435356e-01	66487.000000	0.000000e+00
2.539777e+00	1.133090e+02	4.376432e-01	67033.000000	0.000000e+00
2.564215e+00	1.117798e+02	4.278984e-01	68241.000000	0.000000e+00
2.588707e+00	1.101505e+02	4.163564e-01	69991.000000	0.000000e+00
2.613337e+00	1.081375e+02	4.043972e-01	71505.000000	0.000000e+00
2.637925e+00	1.076327e+02	3.991629e-01	72709.000000	0.000000e+00
2.662420e+00	1.049201e+02	3.870749e-01	73473.000000	0.000000e+00
2.686963e+00	1.034562e+02	3.758615e-01	75763.000000	0.000000e+00
2.711515e+00	1.028751e+02	3.725283e-01	76261.000000	0.000000e+00
2.735982e+00	1.009878e+02	3.616292e-01	77985.000000	0.000000e+00
2.760573e+00	9.961436e+01	3.521657e-01	80011.000000	0.000000e+00
2.785237e+00	9.780482e+01	3.436320e-01	81009.000000	0.000000e+00
2.809671e+00	9.727934e+01	3.405437e-01	81601.000000	0.000000e+00
2.834151e+00	9.550991e+01	3.293817e-01	84081.000000	0.000000e+00
2.858722e+00	9.413212e+01	3.225689e-01	85159.000000	0.000000e+00
2.883250e+00	9.355237e+01	3.177847e-01	86665.000000	0.000000e+00
2.907819e+00	9.173959e+01	3.086566e-01	88341.000000	0.000000e+00
2.932335e+00	9.077003e+01	3.034463e-01	89479.000000	0.000000e+00
2.956914e+00	8.927456e+01	2.950987e-01	91521.000000	0.000000e+00
2.981449e+00	8.801071e+01	2.894948e-01	92425.000000	0.000000e+00
3.005876e+00	8.725867e+01	2.852459e-01	93579.000000	0.000000e+00
3.030403e+00	8.613817e+01	2.775749e-01	96301.000000	0.000000e+00
3.055041e+00	8.480813e+01	2.713850e-01	97657.000000	0.000000e+00
3.079692e+00	8.378107e+01	2.657468e-01	99393.000000	0.000000e+00
3.104241e+00	8.270294e+01	2.612750e-01	100195.000000	0.000000e+00
3.128710e+00	8.198256e+01	2.570643e-01	101709.000000	0.000000e+00
3.153123e+00	8.097924e+01	2.522962e-01	103021.000000	0.000000e+00
3.177619e+00	7.984520e+01	2.456985e-01	105607.000000	0.000000e+00
3.202185e+00	7.919104e+01	2.423105e-01	106809.000000	0.000000e+00
3.226708e+00	7.783967e+01	2.361892e-01	108613.000000	0.000000e+00
3.251321e+00	7.685139e+01	2.308974e-01	110781.000000	0.000000e+00
3.275882e+00	7.583006e+01	2.269476e-01	111643.000000	0.000000e+00
3.300393e+00	7.513773e+01	2.228704e-01	113661.000000	0.000000e+00
3.324955e+00	7.414737e+01	2.184010e-01	115261.000000	0.000000e+00
3.349528e+00	7.353768e+01	2.145543e-01	117475.000000	0.000000e+00
3.374087e+00	7.265556e+01	2.111607e-01	118389.000000	0.000000e+00
3.398541e+00	7.164786e+01	2.068184e-01	120013.000000	0.000000e+00
3.423011e+00	7.091730e+01	2.031197e-01	121899.000000	0.000000e+00
3.447546e+00	6.976362e+01	1.980220e-01	124117.000000	0.000000e+00
3.472176e+00	6.916174e+01	1.943259e-01	126669.000000	0.000000e+00
3.496772e+00	6.841161e+01	1.919971e-01	126961.000000	0.000000e+00
3.521302e+00	6.768724e+01	1.878065e-01	129895.000000	0.000000e+00
3.545845e+00	6.661001e+01	1.844162e-01	130461.000000	0.000000e+00
3.570351e+00	6.624176e+01	1.814189e-01	133321.000000	0.000000e+00
3.594817e+00	6.518947e+01	1.783351e-01	133623.000000	0.000000e+00
3.619340e+00	6.496259e+01	1.752465e-01	137413.000000	0.000000e+00
3.643921e+00	6.400386e+01	1.721424e-01	138241.000000	0.000000e+00
3.668501e+00	6.312549e+01	1.681339e-01	140961.000000	0.000000e+00
3.693083e+00	6.238206e+01	1.653964e-01	142255.000000	0.000000e+00
3.717636e+00	6.135370e+01	1.615886e-01	144165.000000	0.000000e+00
3.742123e+00	6.112632e+01	1.603217e-01	145369.000000	0.000000e+00
3.766623e+00	6.042170e+01	1.569575e-01	148191.000000	0.000000e+00
3.791211e+00	5.987760e+01	1.545039e-01	150193.000000	0.000000e+00
3.815740e+00	5.903152e+01	1.516738e-01	151477.000000	0.000000e+00
3.840250e+00	5.834599e+01	1.487958e-01	153759.000000	0.000000e+00
3.864816e+00	5.805350e+01	1.469257e-01	156121.000000	0.000000e+00
3.889416e+00	5.749905e+01	1.445499e-01	158229.000000	0.000000e+00
3.913984e+00	5.675582e+01	1.420615e-01	159613.000000	0.000000e+00
3.938439e+00	5.583661e+01	1.392218e-01	160851.000000	0.000000e+00
3.962856e+00	5.547804e+01	1.374343e-01	162949.000000	0.000000e+00
3.987408e+00	5.480603e+01	1.341686e-01	166861.000000	0.000000e+00
4.011951e+00	5.436075e+01	1.330443e-01	166947.000000	0.000000e+00
4.036502e+00	5.381553e+01	1.302124e-01	170809.000000	0.000000e+00
4.061101e+00	5.334962e+01	1.286220e-01	172041.000000	0.000000e+00
4.085632e+00	5.281236e+01	1.266775e-01	173809.000000	0.000000e+00
4.110226e+00	5.241542e+01	1.244551e-01	177375.000000	0.000000e+00
4.134760e+00	5.172217e+01	1.229471e-01	176977.000000	0.000000e+00
4.159247e+00	5.134208e+01	1.207367e-01	180829.000000	0.000000e+00
4.183807e+00	5.057964e+01	1.183711e-01	182583.000000	0.000000e+00
4.208321e+00	5.005843e+01	1.166660e-01	184105.000000	0.000000e+00
4.232839e+00	4.968112e+01	1.147970e-01	187293.000000	0.000000e+00
4.257376e+00	4.933791e+01	1.136900e-01	188329.000000	0.000000e+00
4.281944e+00	4.852924e+01	1.106225e-01	192451.000000	0.000000e+00
4.306505e+00	4.824597e+01	1.099385e-01	192585.000000	0.000000e+00
4.331033e+00	4.759464e+01	1.074733e-01	196117.000000	0.000000e+00
4.355617e+00	4.710800e+01	1.058121e-01	198207.000000	0.000000e+00
4.380161e+00	4.684434e+01	1.048528e-01	199597.000000	0.000000e+00
4.404676e+00	4.657837e+01	1.034929e-01	202557.000000	0.000000e+00
4.429249e+00	4.595967e+01	1.015458e-01	204847.000000	0.000000e+00
4.453772e+00	4.572228e+01	1.006550e-01	206341.000000	0.000000e+00
4.478282e+00	4.502474e+01	9.843573e-02	209217.000000	0.000000e+00
4.502777e+00	4.479048e+01	9.762353e-02	210505.000000	0.000000e+00
4.527289e+00	4.446781e+01	9.605847e-02	214299.000000	0.000000e+00
4.551889e+00	4.373418e+01	9.397814e-02	216565.000000	0.000000e+00
4.576426e+00	4.352165e+01	9.325142e-02	217821.000000	0.000000e+00
4.600893e+00	4.301752e+01	9.168554e-02	220135.000000	0.000000e+00
4.625467e+00	4.256202e+01	8.986752e-02	224305.000000	0.000000e+00
4.650035e+00	4.249958e+01	8.961431e-02	224913.000000	0.000000e+00
4.674541e+00	4.199208e+01	8.799351e-02	227737.000000	0.000000e+00
4.699104e+00	4.132886e+01	8.602062e-02	230835.000000	0.000000e+00
4.723670e+00	4.116668e+01	8.532491e-02	232777.000000	0.000000e+00
4.748182e+00	4.085705e+01	8.439288e-02	234381.000000	0.000000e+00
4.772682e+00	4.042932e+01	8.293215e-02	237655.000000	0.000000e+00
4.797203e+00	4.012487e+01	8.202135e-02	239317.000000	0.000000e+00
4.821755e+00	3.975751e+01	8.056319e-02	243537.000000	0.000000e+00
4.846361e+00	3.949215e+01	7.974926e-02	245227.000000	0.000000e+00
4.870915e+00	3.898466e+01	7.839872e-02	247269.000000	0.000000e+00
4.895426e+00	3.876637e+01	7.759095e-02	249625.000000	0.000000e+00
4.919952e+00	3.858480e+01	7.681142e-02	252337.000000	0.000000e+00
4.944496e+00	3.813542e+01	7.546924e-02	255339.000000	0.000000e+00
4.969013e+00	3.773047e+01	7.450375e-02	256465.000000	0.000000e+00
4.993562e+00	3.751754e+01	7.339848e-02	261273.000000	0.000000e+00
5.018138e+00	3.714525e+01	7.253230e-02	262267.000000	0.000000e+00
5.042642e+00	3.679515e+01	7.152028e-02	264681.000000	0.000000e+00
5.067215e+00	3.637257e+01	7.011744e-02	269089.000000	0.000000e+00
5.091775e+00	3.631625e+01	6.997455e-02	269353.000000	0.000000e+00
5.116309e+00	3.604975e+01	6.886510e-02	274035.000000	0.000000e+00
5.140838e+00	3.569696e+01	6.816159e-02	274273.000000	0.000000e+00
5.165333e+00	3.545224e+01	6.717656e-02	278517.000000	0.000000e+00
5.189818e+00	3.520436e+01	6.659674e-02	279439.000000	0.000000e+00
5.214351e+00	3.482241e+01	6.525618e-02	284757.000000	0.000000e+00
5.238947e+00	3.465139e+01	6.474859e-02	286405.000000	0.000000e+00
5.263479e+00	3.428870e+01	6.383529e-02	288523.000000	0.000000e+00
5.288002e+00	3.403076e+01	6.301377e-02	291657.000000	0.000000e+00
5.312546e+00	3.365971e+01	6.203851e-02	294373.000000	0.000000e+00
5.337121e+00	3.353762e+01	6.145422e-02	297825.000000	0.000000e+00
5.361672e+00	3.329627e+01	6.085422e-02	299371.000000	0.000000e+00
5.386196e+00	3.299234e+01	5.997486e-02	302613.000000	0.000000e+00
5.410715e+00	3.280498e+01	5.943624e-02	304633.000000	0.000000e+00
5.435244e+00	3.249215e+01	5.849676e-02	308527.000000	0.000000e+00
5.459823e+00	3.220118e+01	5.770848e-02	311361.000000	0.000000e+00
5.484389e+00	3.201055e+01	5.711609e-02	314101.000000	0.000000e+00
5.508889e+00	3.177690e+01	5.664008e-02	314757.000000	0.000000e+00
5.533464e+00	3.152147e+01	5.553764e-02	322135.000000	0.000000e+00
5.558036e+00	3.130832e+01	5.533501e-02	320125.000000	0.000000e+00
5.582484e+00	3.102051e+01	5.444232e-02	324657.000000	0.000000e+00
5.606956e+00	3.071270e+01	5.375543e-02	326431.000000	0.000000e+00
5.631560e+00	3.058876e+01	5.295939e-02	333609.000000	0.000000e+00
5.656168e+00	3.028828e+01	5.248701e-02	333001.000000	0.000000e+00
5.680698e+00	3.007185e+01	5.182453e-02	336705.000000	0.000000e+00
5.705204e+00	2.990915e+01	5.141163e-02	338443.000000	0.000000e+00
5.729704e+00	2.979472e+01	5.093442e-02	342181.000000	0.000000e+00
5.754232e+00	2.941648e+01	5.007084e-02	345153.000000	0.000000e+00
5.778772e+00	2.916939e+01	4.940283e-02	348619.000000	0.000000e+00
5.803342e+00	2.899982e+01	4.891888e-02	351429.000000	0.000000e+00
5.827902e+00	2.873632e+01	4.824974e-02	354709.000000	0.000000e+00
5.852409e+00	2.865185e+01	4.803309e-02	355815.000000	0.000000e+00
5.876957e+00	2.842179e+01	4.725708e-02	361717.000000	0.000000e+00
5.901534e+00	2.822505e+01	4.685696e-02	362845.000000	0.000000e+00
5.926030e+00	2.806838e+01	4.644759e-02	365181.000000	0.000000e+00
5.950548e+00	2.792957e+01	4.592542e-02	369847.000000	0.000000e+00
5.975137e+00	2.760808e+01	4.519477e-02	373161.000000	0.000000e+00
5.999657e+00	2.738479e+01	4.478580e-02	373885.000000	0.000000e+00
6.024161e+00	2.733315e+01	4.439944e-02	378987.000000	0.000000e+00
6.048714e+00	2.711685e+01	4.391561e-02	381277.000000	0.000000e+00
6.073267e+00	2.695028e+01	4.340743e-02	385477.000000	0.000000e+00
6.097868e+00	2.671790e+01	4.284636e-02	388845.000000	0.000000e+00
6.122369e+00	2.653758e+01	4.256980e-02	388615.000000	0.000000e+00
6.146867e+00	2.632364e+01	4.187943e-02	395085.000000	0.000000e+00
6.171452e+00	2.622938e+01	4.160873e-02	397381.000000	0.000000e+00
6.195974e+00	2.600249e+01	4.112018e-02	399871.000000	0.000000e+00
6.220444e+00	2.583365e+01	4.077057e-02	401493.000000	0.000000e+00
6.244986e+00	2.576699e+01	4.029355e-02	408937.000000	0.000000e+00
6.269588e+00	2.540968e+01	3.969338e-02	409791.000000	0.000000e+00
6.294124e+00	2.527470e+01	3.932802e-02	413017.000000	0.000000e+00
6.318633e+00	2.516407e+01	3.902644e-02	415761.000000	0.000000e+00
6.343202e+00	2.497493e+01	3.849753e-02	420865.000000	0.000000e+00
6.367770e+00	2.482121e+01	3.817441e-02	422767.000000	0.000000e+00
6.392288e+00	2.467253e+01	3.782720e-02	425421.000000	0.000000e+00
6.416837e+00	2.450886e+01	3.735286e-02	430525.000000	0.000000e+00
6.441383e+00	2.435197e+01	3.706153e-02	431739.000000	0.000000e+00
6.465913e+00	2.422262e+01	3.666203e-02	436525.000000	0.000000e+00
6.490433e+00	2.412835e+01	3.644296e-02	438357.000000	0.000000e+00
6.514946e+00	2.386626e+01	3.588278e-02	442381.000000	0.000000e+00
6.539518e+00	2.376600e+01	3.552475e-02	447559.000000	0.000000e+00
6.564059e+00	2.357935e+01	3.523858e-02	447741.000000	0.000000e+00
6.588587e+00	2.346530e+01	3.483120e-02	453853.000000	0.000000e+00
6.613110e+00	2.327166e+01	3.452180e-02	454431.000000	0.000000e+00
6.637622e+00	2.314969e+01	3.413380e-02	459961.000000	0.000000e+00
6.662172e+00	2.298542e+01	3.378861e-02	462769.000000	0.000000e+00
6.686693e+00	2.283295e+01	3.345657e-02	465759.000000	0.000000e+00
6.711227e+00	2.271170e+01	3.312993e-02	469957.000000	0.000000e+00
6.735777e+00	2.255275e+01	3.277542e-02	473481.000000	0.000000e+00
6.760323e+00	2.246666e+01	3.255542e-02	476245.000000	0.000000e+00
6.784855e+00	2.230893e+01	3.219000e-02	480303.000000	0.000000e+00
6.809427e+00	2.220446e+01	3.189779e-02	484573.000000	0.000000e+00
6.833979e+00	2.211654e+01	3.170873e-02	486493.000000	0.000000e+00
6.858503e+00	2.198157e+01	3.138268e-02	490611.000000	0.000000e+00
6.883055e+00	2.184422e+01	3.107097e-02	494269.000000	0.000000e+00
6.907584e+00	2.167742e+01	3.074032e-02	497277.000000	0.000000e+00
6.932134e+00	2.160118e+01	3.049734e-02	501685.000000	0.000000e+00
6.956669e+00	2.139056e+01	3.012651e-02	504135.000000	0.000000e+00
6.981221e+00	2.128103e+01	2.982430e-02	509149.000000	0.000000e+00
7.005753e+00	2.114270e+01	2.958757e-02	510625.000000	0.000000e+00
7.030233e+00	2.101784e+01	2.930350e-02	514443.000000	0.000000e+00
7.054782e+00	2.096733e+01	2.907553e-02	520033.000000	0.000000e+00
7.079343e+00	2.083682e+01	2.881829e-02	522789.000000	0.000000e+00
7.103883e+00	2.066669e+01	2.849537e-02	526009.000000	0.000000e+00
7.128424e+00	2.058747e+01	2.826640e-02	530475.000000	0.000000e+00
7.152965e+00	2.046852e+01	2.803662e-02	532993.000000	0.000000e+00
7.177501e+00	2.030136e+01	2.769008e-02	537529.000000	0.000000e+00
7.202013e+00	2.021776e+01	2.752076e-02	539691.000000	0.000000e+00
7.226577e+00	2.009868e+01	2.718430e-02	546637.000000	0.000000e+00
7.251125e+00	2.002625e+01	2.707840e-02	546957.000000	0.000000e+00
7.275651e+00	1.994427e+01	2.682818e-02	552655.000000	0.000000e+00
7.300226e+00	1.977917e+01	2.650970e-02	556681.000000	0.000000e+00
7.324759e+00	1.970910e+01	2.637272e-02	558501.000000	0.000000e+00
7.349299e+00	1.957237e+01	2.605732e-02	564193.000000	0.000000e+00
7.373825e+00	1.948335e+01	2.590764e-02	565551.000000	0.000000e+00
7.398312e+00	1.936188e+01	2.564920e-02	569833.000000	0.000000e+00
7.422892e+00	1.932964e+01	2.543839e-02	577389.000000	0.000000e+00
7.447442e+00	1.911895e+01	2.518420e-02	576331.000000	0.000000e+00
7.471956e+00	1.905848e+01	2.496368e-02	582853.000000	0.000000e+00
