# [<k> (h/Mpc)]	[<P_0(k)> (Mpc/h)^3]	[ErrorBar (Mpc/h)^3]	nModes	[<P_2(k)> (Mpc/h)^3]
3.476422e-02	6.876491e+03	1.907196e+03	13.000000	0.000000e+00
5.890282e-02	5.128535e+03	8.927634e+02	33.000000	0.000000e+00
8.378087e-02	2.931701e+03	3.298422e+02	79.000000	0.000000e+00
1.087368e-01	2.260305e+03	2.089653e+02	117.000000	0.000000e+00
1.341836e-01	1.676384e+03	1.170838e+02	205.000000	0.000000e+00
1.581206e-01	1.171972e+03	7.645101e+01	235.000000	0.000000e+00
1.826843e-01	9.613799e+02	5.004744e+01	369.000000	0.000000e+00
2.073525e-01	8.047350e+02	3.867310e+01	433.000000	0.000000e+00
2.322407e-01	7.043992e+02	2.912332e+01	585.000000	0.000000e+00
2.568838e-01	6.016574e+02	2.308949e+01	679.000000	0.000000e+00
2.811185e-01	5.074005e+02	1.779531e+01	813.000000	0.000000e+00
3.057758e-01	4.469819e+02	1.424203e+01	985.000000	0.000000e+00
3.308750e-01	4.219695e+02	1.226842e+01	1183.000000	0.000000e+00
3.553459e-01	3.676573e+02	1.032078e+01	1269.000000	0.000000e+00
3.797184e-01	3.236865e+02	8.256342e+00	1537.000000	0.000000e+00
4.042043e-01	3.053206e+02	7.509649e+00	1653.000000	0.000000e+00
4.287408e-01	2.705314e+02	6.106010e+00	1963.000000	0.000000e+00
4.533372e-01	2.519309e+02	5.470300e+00	2121.000000	0.000000e+00
4.779960e-01	2.435012e+02	4.957041e+00	2413.000000	0.000000e+00
5.026630e-01	2.155953e+02	4.199998e+00	2635.000000	0.000000e+00
5.271488e-01	1.962832e+02	3.659428e+00	2877.000000	0.000000e+00
5.515428e-01	1.874008e+02	3.328974e+00	3169.000000	0.000000e+00
5.762241e-01	1.757377e+02	2.967543e+00	3507.000000	0.000000e+00
6.007286e-01	1.720920e+02	2.834927e+00	3685.000000	0.000000e+00
6.252569e-01	1.635224e+02	2.533784e+00	4165.000000	0.000000e+00
6.499966e-01	1.555116e+02	2.350577e+00	4377.000000	0.000000e+00
6.746858e-01	1.484454e+02	2.130454e+00	4855.000000	0.000000e+00
6.991271e-01	1.378763e+02	1.963859e+00	4929.000000	0.000000e+00
7.235757e-01	1.348894e+02	1.805601e+00	5581.000000	0.000000e+00
7.479714e-01	1.292976e+02	1.715752e+00	5679.000000	0.000000e+00
7.726133e-01	1.241239e+02	1.553370e+00	6385.000000	0.000000e+00
7.972413e-01	1.187197e+02	1.466569e+00	6553.000000	0.000000e+00
8.218513e-01	1.135546e+02	1.345279e+00	7125.000000	0.000000e+00
8.464491e-01	1.133099e+02	1.313037e+00	7447.000000	0.000000e+00
8.709767e-01	1.080343e+02	1.213257e+00	7929.000000	0.000000e+00
8.955547e-01	1.039915e+02	1.137828e+00	8353.000000	0.000000e+00
9.199772e-01	1.014829e+02	1.083351e+00	8775.000000	0.000000e+00
9.444963e-01	9.887872e+01	1.024609e+00	9313.000000	0.000000e+00
9.690846e-01	9.547803e+01	9.624626e-01	9841.000000	0.000000e+00
9.935517e-01	9.290354e+01	9.202882e-01	10191.000000	0.000000e+00
1.018099e+00	9.177497e+01	8.791658e-01	10897.000000	0.000000e+00
1.042679e+00	8.870042e+01	8.343864e-01	11301.000000	0.000000e+00
1.067353e+00	8.600261e+01	7.842763e-01	12025.000000	0.000000e+00
1.092004e+00	8.431743e+01	7.564916e-01	12423.000000	0.000000e+00
1.116549e+00	8.050438e+01	7.055006e-01	13021.000000	0.000000e+00
1.140967e+00	8.111855e+01	7.006268e-01	13405.000000	0.000000e+00
1.165410e+00	7.742629e+01	6.486744e-01	14247.000000	0.000000e+00
1.189942e+00	7.749156e+01	6.401638e-01	14653.000000	0.000000e+00
1.214340e+00	7.453391e+01	6.019222e-01	15333.000000	0.000000e+00
1.238824e+00	7.366100e+01	5.832717e-01	15949.000000	0.000000e+00
1.263616e+00	7.084334e+01	5.424032e-01	17059.000000	0.000000e+00
1.288278e+00	7.048556e+01	5.390638e-01	17097.000000	0.000000e+00
1.312698e+00	6.905679e+01	5.152201e-01	17965.000000	0.000000e+00
1.337129e+00	6.714804e+01	4.932691e-01	18531.000000	0.000000e+00
1.361846e+00	6.666784e+01	4.753629e-01	19669.000000	0.000000e+00
1.386459e+00	6.467259e+01	4.585325e-01	19893.000000	0.000000e+00
1.410760e+00	6.356919e+01	4.441490e-01	20485.000000	0.000000e+00
1.435294e+00	6.234491e+01	4.227284e-01	21751.000000	0.000000e+00
1.459966e+00	6.089699e+01	4.086310e-01	22209.000000	0.000000e+00
1.484553e+00	6.023869e+01	3.968486e-01	23041.000000	0.000000e+00
1.509059e+00	5.909028e+01	3.839055e-01	23691.000000	0.000000e+00
1.533565e+00	5.848390e+01	3.739683e-01	24457.000000	0.000000e+00
1.558284e+00	5.681893e+01	3.537598e-01	25797.000000	0.000000e+00
1.582818e+00	5.593855e+01	3.494317e-01	25627.000000	0.000000e+00
1.607259e+00	5.499479e+01	3.333507e-01	27217.000000	0.000000e+00
1.631809e+00	5.474370e+01	3.298232e-01	27549.000000	0.000000e+00
1.656366e+00	5.363616e+01	3.159828e-01	28813.000000	0.000000e+00
1.680925e+00	5.271647e+01	3.076843e-01	29355.000000	0.000000e+00
1.705257e+00	5.117316e+01	2.958579e-01	29917.000000	0.000000e+00
1.729806e+00	5.103780e+01	2.868696e-01	31653.000000	0.000000e+00
1.754462e+00	4.949556e+01	2.769007e-01	31951.000000	0.000000e+00
1.778992e+00	4.920462e+01	2.706125e-01	33061.000000	0.000000e+00
1.803411e+00	4.906851e+01	2.677026e-01	33597.000000	0.000000e+00
1.827963e+00	4.784481e+01	2.550246e-01	35197.000000	0.000000e+00
1.852647e+00	4.735622e+01	2.502050e-01	35823.000000	0.000000e+00
1.877249e+00	4.636611e+01	2.412122e-01	36949.000000	0.000000e+00
1.901733e+00	4.610378e+01	2.386876e-01	37309.000000	0.000000e+00
1.926241e+00	4.518784e+01	2.285978e-01	39075.000000	0.000000e+00
1.950830e+00	4.404664e+01	2.219798e-01	39373.000000	0.000000e+00
1.975308e+00	4.364677e+01	2.159964e-01	40833.000000	0.000000e+00
1.999729e+00	4.336532e+01	2.136378e-01	41203.000000	0.000000e+00
2.024419e+00	4.271393e+01	2.043542e-01	43689.000000	0.000000e+00
2.049126e+00	4.190653e+01	2.008964e-01	43513.000000	0.000000e+00
2.073508e+00	4.119443e+01	1.954187e-01	44437.000000	0.000000e+00
2.097846e+00	4.075975e+01	1.907684e-01	45651.000000	0.000000e+00
2.122473e+00	4.033929e+01	1.851186e-01	47485.000000	0.000000e+00
2.147106e+00	3.983428e+01	1.818917e-01	47961.000000	0.000000e+00
2.171601e+00	3.911914e+01	1.764578e-01	49147.000000	0.000000e+00
2.196158e+00	3.844972e+01	1.713963e-01	50325.000000	0.000000e+00
2.220735e+00	3.836388e+01	1.688074e-01	51649.000000	0.000000e+00
2.245251e+00	3.774840e+01	1.652947e-01	52153.000000	0.000000e+00
2.269729e+00	3.715390e+01	1.599694e-01	53943.000000	0.000000e+00
2.294271e+00	3.649378e+01	1.560404e-01	54697.000000	0.000000e+00
2.318928e+00	3.613059e+01	1.516740e-01	56745.000000	0.000000e+00
2.343538e+00	3.560451e+01	1.491217e-01	57007.000000	0.000000e+00
2.368026e+00	3.506362e+01	1.450186e-01	58461.000000	0.000000e+00
2.392423e+00	3.461222e+01	1.424468e-01	59041.000000	0.000000e+00
2.416863e+00	3.400322e+01	1.376581e-01	61015.000000	0.000000e+00
2.441509e+00	3.347068e+01	1.337362e-01	62637.000000	0.000000e+00
2.466080e+00	3.324725e+01	1.322829e-01	63169.000000	0.000000e+00
2.490575e+00	3.270158e+01	1.286577e-01	64605.000000	0.000000e+00
2.515186e+00	3.199252e+01	1.240738e-01	66487.000000	0.000000e+00
2.539777e+00	3.179830e+01	1.228173e-01	67033.000000	0.000000e+00
2.564215e+00	3.140566e+01	1.202224e-01	68241.000000	0.000000e+00
2.588707e+00	3.085975e+01	1.166464e-01	69991.000000	0.000000e+00
2.613337e+00	3.061818e+01	1.145015e-01	71505.000000	0.000000e+00
2.637925e+00	3.034704e+01	1.125440e-01	72709.000000	0.000000e+00
2.662420e+00	2.992819e+01	1.104121e-01	73473.000000	0.000000e+00
2.686963e+00	2.959256e+01	1.075112e-01	75763.000000	0.000000e+00
2.711515e+00	2.932815e+01	1.062022e-01	76261.000000	0.000000e+00
2.735982e+00	2.900247e+01	1.038555e-01	77985.000000	0.000000e+00
2.760573e+00	2.859243e+01	1.010826e-01	80011.000000	0.000000e+00
2.785237e+00	2.823425e+01	9.919953e-02	81009.000000	0.000000e+00
2.809671e+00	2.784270e+01	9.746835e-02	81601.000000	0.000000e+00
2.834151e+00	2.746054e+01	9.470223e-02	84081.000000	0.000000e+00
2.858722e+00	2.722178e+01	9.328273e-02	85159.000000	0.000000e+00
2.883250e+00	2.678242e+01	9.097625e-02	86665.000000	0.000000e+00
2.907819e+00	2.645803e+01	8.901769e-02	88341.000000	0.000000e+00
2.932335e+00	2.615988e+01	8.745309e-02	89479.000000	0.000000e+00
2.956914e+00	2.581472e+01	8.533103e-02	91521.000000	0.000000e+00
2.981449e+00	2.558184e+01	8.414668e-02	92425.000000	0.000000e+00
3.005876e+00	2.538824e+01	8.299336e-02	93579.000000	0.000000e+00
3.030403e+00	2.494517e+01	8.038427e-02	96301.000000	0.000000e+00
3.055041e+00	2.451379e+01	7.844381e-02	97657.000000	0.000000e+00
3.079692e+00	2.430748e+01	7.710136e-02	99393.000000	0.000000e+00
3.104241e+00	2.385027e+01	7.534774e-02	100195.000000	0.000000e+00
3.128710e+00	2.379483e+01	7.461102e-02	101709.000000	0.000000e+00
3.153123e+00	2.339520e+01	7.288931e-02	103021.000000	0.000000e+00
3.177619e+00	2.328656e+01	7.165706e-02	105607.000000	0.000000e+00
3.202185e+00	2.283602e+01	6.987414e-02	106809.000000	0.000000e+00
3.226708e+00	2.268921e+01	6.884597e-02	108613.000000	0.000000e+00
3.251321e+00	2.243115e+01	6.739363e-02	110781.000000	0.000000e+00
3.275882e+00	2.208026e+01	6.608279e-02	111643.000000	0.000000e+00
3.300393e+00	2.165438e+01	6.423032e-02	113661.000000	0.000000e+00
3.324955e+00	2.170639e+01	6.393615e-02	115261.000000	0.000000e+00
3.349528e+00	2.144687e+01	6.257360e-02	117475.000000	0.000000e+00
3.374087e+00	2.110912e+01	6.135000e-02	118389.000000	0.000000e+00
3.398541e+00	2.100123e+01	6.062205e-02	120013.000000	0.000000e+00
3.423011e+00	2.077474e+01	5.950254e-02	121899.000000	0.000000e+00
3.447546e+00	2.045899e+01	5.807225e-02	124117.000000	0.000000e+00
3.472176e+00	2.020000e+01	5.675657e-02	126669.000000	0.000000e+00
3.496772e+00	1.997134e+01	5.604953e-02	126961.000000	0.000000e+00
3.521302e+00	1.971165e+01	5.469236e-02	129895.000000	0.000000e+00
3.545845e+00	1.947099e+01	5.390732e-02	130461.000000	0.000000e+00
3.570351e+00	1.928557e+01	5.281816e-02	133321.000000	0.000000e+00
3.594817e+00	1.909539e+01	5.223818e-02	133623.000000	0.000000e+00
3.619340e+00	1.889740e+01	5.097862e-02	137413.000000	0.000000e+00
3.643921e+00	1.873369e+01	5.038542e-02	138241.000000	0.000000e+00
3.668501e+00	1.846245e+01	4.917450e-02	140961.000000	0.000000e+00
3.693083e+00	1.829184e+01	4.849797e-02	142255.000000	0.000000e+00
3.717636e+00	1.814403e+01	4.778634e-02	144165.000000	0.000000e+00
3.742123e+00	1.790983e+01	4.697378e-02	145369.000000	0.000000e+00
3.766623e+00	1.768958e+01	4.595224e-02	148191.000000	0.000000e+00
3.791211e+00	1.752031e+01	4.520817e-02	150193.000000	0.000000e+00
3.815740e+00	1.736786e+01	4.462445e-02	151477.000000	0.000000e+00
3.840250e+00	1.712135e+01	4.366343e-02	153759.000000	0.000000e+00
3.864816e+00	1.700676e+01	4.304186e-02	156121.000000	0.000000e+00
3.889416e+00	1.678937e+01	4.220768e-02	158229.000000	0.000000e+00
3.913984e+00	1.667465e+01	4.173712e-02	159613.000000	0.000000e+00
3.938439e+00	1.649862e+01	4.113730e-02	160851.000000	0.000000e+00
3.962856e+00	1.638912e+01	4.060034e-02	162949.000000	0.000000e+00
3.987408e+00	1.609062e+01	3.939086e-02	166861.000000	0.000000e+00
4.011951e+00	1.590510e+01	3.892665e-02	166947.000000	0.000000e+00
4.036502e+00	1.580696e+01	3.824661e-02	170809.000000	0.000000e+00
4.061101e+00	1.565338e+01	3.773915e-02	172041.000000	0.000000e+00
4.085632e+00	1.544942e+01	3.705750e-02	173809.000000	0.000000e+00
4.110226e+00	1.535019e+01	3.644749e-02	177375.000000	0.000000e+00
4.134760e+00	1.513860e+01	3.598549e-02	176977.000000	0.000000e+00
4.159247e+00	1.501649e+01	3.531298e-02	180829.000000	0.000000e+00
4.183807e+00	1.489219e+01	3.485205e-02	182583.000000	0.000000e+00
4.208321e+00	1.468364e+01	3.422166e-02	184105.000000	0.000000e+00
4.232839e+00	1.456239e+01	3.364898e-02	187293.000000	0.000000e+00
4.257376e+00	1.443220e+01	3.325631e-02	188329.000000	0.000000e+00
4.281944e+00	1.425652e+01	3.249777e-02	192451.000000	0.000000e+00
4.306505e+00	1.408712e+01	3.210043e-02	192585.000000	0.000000e+00
4.331033e+00	1.397593e+01	3.155898e-02	196117.000000	0.000000e+00
4.355617e+00	1.391262e+01	3.124997e-02	198207.000000	0.000000e+00
4.380161e+00	1.377711e+01	3.083764e-02	199597.000000	0.000000e+00
4.404676e+00	1.364039e+01	3.030771e-02	202557.000000	0.000000e+00
4.429249e+00	1.348364e+01	2.979150e-02	204847.000000	0.000000e+00
4.453772e+00	1.341123e+01	2.952404e-02	206341.000000	0.000000e+00
4.478282e+00	1.327268e+01	2.901750e-02	209217.000000	0.000000e+00
4.502777e+00	1.313760e+01	2.863418e-02	210505.000000	0.000000e+00
4.527289e+00	1.297079e+01	2.801924e-02	214299.000000	0.000000e+00
4.551889e+00	1.289066e+01	2.770008e-02	216565.000000	0.000000e+00
4.576426e+00	1.267776e+01	2.716394e-02	217821.000000	0.000000e+00
4.600893e+00	1.261228e+01	2.688123e-02	220135.000000	0.000000e+00
4.625467e+00	1.252186e+01	2.643926e-02	224305.000000	0.000000e+00
4.650035e+00	1.237647e+01	2.609693e-02	224913.000000	0.000000e+00
4.674541e+00	1.224528e+01	2.565972e-02	227737.000000	0.000000e+00
4.699104e+00	1.216346e+01	2.531665e-02	230835.000000	0.000000e+00
4.723670e+00	1.202463e+01	2.492308e-02	232777.000000	0.000000e+00
4.748182e+00	1.192219e+01	2.462606e-02	234381.000000	0.000000e+00
4.772682e+00	1.182771e+01	2.426203e-02	237655.000000	0.000000e+00
4.797203e+00	1.169556e+01	2.390750e-02	239317.000000	0.000000e+00
4.821755e+00	1.159074e+01	2.348707e-02	243537.000000	0.000000e+00
4.846361e+00	1.149691e+01	2.321652e-02	245227.000000	0.000000e+00
4.870915e+00	1.136885e+01	2.286292e-02	247269.000000	0.000000e+00
4.895426e+00	1.128547e+01	2.258789e-02	249625.000000	0.000000e+00
4.919952e+00	1.120088e+01	2.229777e-02	252337.000000	0.000000e+00
4.944496e+00	1.103459e+01	2.183723e-02	255339.000000	0.000000e+00
4.969013e+00	1.095712e+01	2.163626e-02	256465.000000	0.000000e+00
4.993562e+00	1.086900e+01	2.126388e-02	261273.000000	0.000000e+00
5.018138e+00	1.077664e+01	2.104319e-02	262267.000000	0.000000e+00
5.042642e+00	1.070458e+01	2.080695e-02	264681.000000	0.000000e+00
5.067215e+00	1.057688e+01	2.038964e-02	269089.000000	0.000000e+00
5.091775e+00	1.047680e+01	2.018682e-02	269353.000000	0.000000e+00
5.116309e+00	1.041367e+01	1.989303e-02	274035.000000	0.000000e+00
5.140838e+00	1.029119e+01	1.965052e-02	274273.000000	0.000000e+00
5.165333e+00	1.020866e+01	1.934384e-02	278517.000000	0.000000e+00
5.189818e+00	1.014191e+01	1.918564e-02	279439.000000	0.000000e+00
5.214351e+00	1.004176e+01	1.881796e-02	284757.000000	0.000000e+00
5.238947e+00	9.972401e+00	1.863414e-02	286405.000000	0.000000e+00
5.263479e+00	9.856064e+00	1.834904e-02	288523.000000	0.000000e+00
5.288002e+00	9.790323e+00	1.812846e-02	291657.000000	0.000000e+00
5.312546e+00	9.708229e+00	1.789332e-02	294373.000000	0.000000e+00
5.337121e+00	9.622249e+00	1.763177e-02	297825.000000	0.000000e+00
5.361672e+00	9.534890e+00	1.742653e-02	299371.000000	0.000000e+00
5.386196e+00	9.464264e+00	1.720454e-02	302613.000000	0.000000e+00
5.410715e+00	9.379770e+00	1.699432e-02	304633.000000	0.000000e+00
5.435244e+00	9.301799e+00	1.674636e-02	308527.000000	0.000000e+00
5.459823e+00	9.229237e+00	1.653993e-02	311361.000000	0.000000e+00
5.484389e+00	9.165802e+00	1.635444e-02	314101.000000	0.000000e+00
5.508889e+00	9.115108e+00	1.624703e-02	314757.000000	0.000000e+00
5.533464e+00	8.987970e+00	1.583590e-02	322135.000000	0.000000e+00
5.558036e+00	8.912492e+00	1.575213e-02	320125.000000	0.000000e+00
5.582484e+00	8.853927e+00	1.553902e-02	324657.000000	0.000000e+00
5.606956e+00	8.798309e+00	1.539939e-02	326431.000000	0.000000e+00
5.631560e+00	8.730874e+00	1.511607e-02	333609.000000	0.000000e+00
5.656168e+00	8.660171e+00	1.500734e-02	333001.000000	0.000000e+00
5.680698e+00	8.576784e+00	1.478086e-02	336705.000000	0.000000e+00
5.705204e+00	8.510903e+00	1.462961e-02	338443.000000	0.000000e+00
5.729704e+00	8.441435e+00	1.443073e-02	342181.000000	0.000000e+00
5.754232e+00	8.363563e+00	1.423592e-02	345153.000000	0.000000e+00
5.778772e+00	8.307335e+00	1.406974e-02	348619.000000	0.000000e+00
5.803342e+00	8.234642e+00	1.389076e-02	351429.000000	0.000000e+00
5.827902e+00	8.174048e+00	1.372464e-02	354709.000000	0.000000e+00
5.852409e+00	8.129954e+00	1.362938e-02	355815.000000	0.000000e+00
5.876957e+00	8.063304e+00	1.340691e-02	361717.000000	0.000000e+00
5.901534e+00	7.976201e+00	1.324145e-02	362845.000000	0.000000e+00
5.926030e+00	7.915223e+00	1.309812e-02	365181.000000	0.000000e+00
5.950548e+00	7.874399e+00	1.294811e-02	369847.000000	0.000000e+00
5.975137e+00	7.811751e+00	1.278793e-02	373161.000000	0.000000e+00
5.999657e+00	7.737736e+00	1.265450e-02	373885.000000	0.000000e+00
6.024161e+00	7.686817e+00	1.248632e-02	378987.000000	0.000000e+00
6.048714e+00	7.631549e+00	1.235926e-02	381277.000000	0.000000e+00
6.073267e+00	7.559583e+00	1.217583e-02	385477.000000	0.000000e+00
6.097868e+00	7.493596e+00	1.201716e-02	388845.000000	0.000000e+00
6.122369e+00	7.457859e+00	1.196339e-02	388615.000000	0.000000e+00
6.146867e+00	7.391132e+00	1.175887e-02	395085.000000	0.000000e+00
6.171452e+00	7.331557e+00	1.163035e-02	397381.000000	0.000000e+00
6.195974e+00	7.299522e+00	1.154342e-02	399871.000000	0.000000e+00
6.220444e+00	7.217964e+00	1.139136e-02	401493.000000	0.000000e+00
6.244986e+00	7.176706e+00	1.122269e-02	408937.000000	0.000000e+00
6.269588e+00	7.131992e+00	1.114114e-02	409791.000000	0.000000e+00
6.294124e+00	7.078995e+00	1.101508e-02	413017.000000	0.000000e+00
6.318633e+00	7.010826e+00	1.087295e-02	415761.000000	0.000000e+00
6.343202e+00	6.961304e+00	1.073048e-02	420865.000000	0.000000e+00
6.367770e+00	6.915870e+00	1.063644e-02	422767.000000	0.000000e+00
6.392288e+00	6.862861e+00	1.052194e-02	425421.000000	0.000000e+00
6.416837e+00	6.815324e+00	1.038693e-02	430525.000000	0.000000e+00
6.441383e+00	6.778172e+00	1.031578e-02	431739.000000	0.000000e+00
6.465913e+00	6.708331e+00	1.015336e-02	436525.000000	0.000000e+00
6.490433e+00	6.662509e+00	1.006292e-02	438357.000000	0.000000e+00
6.514946e+00	6.605500e+00	9.931331e-03	442381.000000	0.000000e+00
6.539518e+00	6.563870e+00	9.811486e-03	447559.000000	0.000000e+00
6.564059e+00	6.522154e+00	9.747149e-03	447741.000000	0.000000e+00
6.588587e+00	6.472745e+00	9.607953e-03	453853.000000	0.000000e+00
6.613110e+00	6.432371e+00	9.541949e-03	454431.000000	0.000000e+00
6.637622e+00	6.376497e+00	9.402030e-03	459961.000000	0.000000e+00
6.662172e+00	6.319138e+00	9.289144e-03	462769.000000	0.000000e+00
6.686693e+00	6.284611e+00	9.208688e-03	465759.000000	0.000000e+00
6.711227e+00	6.237627e+00	9.098930e-03	469957.000000	0.000000e+00
6.735777e+00	6.199899e+00	9.010177e-03	473481.000000	0.000000e+00
6.760323e+00	6.165342e+00	8.933917e-03	476245.000000	0.000000e+00
6.784855e+00	6.108492e+00	8.814067e-03	480303.000000	0.000000e+00
6.809427e+00	6.086641e+00	8.743758e-03	484573.000000	0.000000e+00
6.833979e+00	6.035220e+00	8.652763e-03	486493.000000	0.000000e+00
6.858503e+00	5.966171e+00	8.517792e-03	490611.000000	0.000000e+00
6.883055e+00	5.947186e+00	8.459211e-03	494269.000000	0.000000e+00
6.907584e+00	5.898690e+00	8.364816e-03	497277.000000	0.000000e+00
6.932134e+00	5.852908e+00	8.263350e-03	501685.000000	0.000000e+00
6.956669e+00	5.813329e+00	8.187503e-03	504135.000000	0.000000e+00
6.981221e+00	5.777609e+00	8.097029e-03	509149.000000	0.000000e+00
7.005753e+00	5.729873e+00	8.018515e-03	510625.000000	0.000000e+00
7.030233e+00	5.710666e+00	7.961925e-03	514443.000000	0.000000e+00
7.054782e+00	5.662902e+00	7.852784e-03	520033.000000	0.000000e+00
7.079343e+00	5.617123e+00	7.768742e-03	522789.000000	0.000000e+00
7.103883e+00	5.584683e+00	7.700199e-03	526009.000000	0.000000e+00
7.128424e+00	5.549402e+00	7.619277e-03	530475.000000	0.000000e+00
7.152965e+00	5.510342e+00	7.547756e-03	532993.000000	0.000000e+00
7.177501e+00	5.473723e+00	7.465895e-03	537529.000000	0.000000e+00
7.202013e+00	5.445919e+00	7.413078e-03	539691.000000	0.000000e+00
7.226577e+00	5.395630e+00	7.297812e-03	546637.000000	0.000000e+00
7.251125e+00	5.383553e+00	7.279346e-03	546957.000000	0.000000e+00
7.275651e+00	5.328181e+00	7.167239e-03	552655.000000	0.000000e+00
7.300226e+00	5.295335e+00	7.097252e-03	556681.000000	0.000000e+00
7.324759e+00	5.242589e+00	7.015100e-03	558501.000000	0.000000e+00
7.349299e+00	5.217206e+00	6.945830e-03	564193.000000	0.000000e+00
7.373825e+00	5.194095e+00	6.906755e-03	565551.000000	0.000000e+00
7.398312e+00	5.162016e+00	6.838259e-03	569833.000000	0.000000e+00
7.422892e+00	5.114285e+00	6.730552e-03	577389.000000	0.000000e+00
7.447442e+00	5.081601e+00	6.693675e-03	576331.000000	0.000000e+00
7.471956e+00	5.051257e+00	6.616372e-03	582853.000000	0.000000e+00
